0  1.16470588235294E+0000  1.24235294117647E+0000  1.66941176470588E+0000
1  1.17764705882353E+0000  1.25529411764706E+0000  1.70823529411765E+0000
2  1.19058823529412E+0000  1.26823529411765E+0000  1.73411764705882E+0000
3  1.21647058823529E+0000  1.25529411764706E+0000  1.76000000000000E+0000
4  1.25529411764706E+0000  1.25529411764706E+0000  1.79882352941176E+0000
5  1.29411764705882E+0000  1.24235294117647E+0000  1.81176470588235E+0000
6  1.34588235294118E+0000  1.21647058823529E+0000  1.82470588235294E+0000
7  1.41058823529412E+0000  1.19058823529412E+0000  1.85058823529412E+0000
8  1.48823529411765E+0000  1.15176470588235E+0000  1.83764705882353E+0000
9  1.56588235294118E+0000  1.11294117647059E+0000  1.82470588235294E+0000
10  1.64352941176471E+0000  1.10000000000000E+0000  1.82470588235294E+0000
11  1.73411764705882E+0000  1.07411764705882E+0000  1.78588235294118E+0000
12  1.83764705882353E+0000  1.06117647058824E+0000  1.74705882352941E+0000
13  1.94117647058824E+0000  1.06117647058824E+0000  1.69529411764706E+0000
14  2.05764705882353E+0000  1.06117647058824E+0000  1.61764705882353E+0000
15  2.18705882352941E+0000  1.07411764705882E+0000  1.54000000000000E+0000
16  2.31647058823529E+0000  1.08705882352941E+0000  1.43647058823529E+0000
17  2.44588235294118E+0000  1.11294117647059E+0000  1.33294117647059E+0000
18  2.58823529411765E+0000  1.13882352941176E+0000  1.21647058823529E+0000
19  2.70470588235294E+0000  1.17764705882353E+0000  1.08705882352941E+0000
20  2.82117647058824E+0000  1.20352941176471E+0000  9.57647058823529E-0001
21  2.93764705882353E+0000  1.21647058823529E+0000  8.41176470588235E-0001
22  3.02823529411765E+0000  1.22941176470588E+0000  7.24705882352941E-0001
23  3.10588235294118E+0000  1.22941176470588E+0000  6.34117647058824E-0001
24  3.17058823529412E+0000  1.21647058823529E+0000  5.56470588235294E-0001
25  3.19647058823529E+0000  1.20352941176471E+0000  5.04705882352941E-0001
26  3.18352941176471E+0000  1.19058823529412E+0000  4.65882352941176E-0001
27  3.14470588235294E+0000  1.15176470588235E+0000  4.52941176470588E-0001
28  3.06705882352941E+0000  1.12588235294118E+0000  4.65882352941176E-0001
29  2.96352941176471E+0000  1.08705882352941E+0000  4.91764705882353E-0001
30  2.80823529411765E+0000  1.06117647058824E+0000  5.43529411764706E-0001
31  2.62705882352941E+0000  1.04823529411765E+0000  6.08235294117647E-0001
32  2.44588235294118E+0000  1.03529411764706E+0000  6.98823529411765E-0001
33  2.25176470588235E+0000  1.03529411764706E+0000  8.28235294117647E-0001
34  2.05764705882353E+0000  1.04823529411765E+0000  9.70588235294118E-0001
35  1.85058823529412E+0000  1.04823529411765E+0000  1.11294117647059E+0000
36  1.65647058823529E+0000  1.07411764705882E+0000  1.26823529411765E+0000
37  1.47529411764706E+0000  1.10000000000000E+0000  1.41058823529412E+0000
38  1.30705882352941E+0000  1.13882352941176E+0000  1.55294117647059E+0000
39  1.13882352941176E+0000  1.16470588235294E+0000  1.64352941176471E+0000
40  9.96470588235294E-0001  1.20352941176471E+0000  1.74705882352941E+0000
41  8.67058823529412E-0001  1.21647058823529E+0000  1.81176470588235E+0000
42  7.50588235294118E-0001  1.22941176470588E+0000  1.83764705882353E+0000
43  6.34117647058824E-0001  1.24235294117647E+0000  1.86352941176471E+0000
44  5.30588235294118E-0001  1.24235294117647E+0000  1.85058823529412E+0000
45  4.52941176470588E-0001  1.22941176470588E+0000  1.83764705882353E+0000
46  4.01176470588235E-0001  1.21647058823529E+0000  1.82470588235294E+0000
47  3.62352941176471E-0001  1.19058823529412E+0000  1.79882352941176E+0000
48  3.36470588235294E-0001  1.16470588235294E+0000  1.77294117647059E+0000
49  3.23529411764706E-0001  1.13882352941176E+0000  1.74705882352941E+0000
50  3.10588235294118E-0001  1.10000000000000E+0000  1.73411764705882E+0000
51  3.23529411764706E-0001  1.08705882352941E+0000  1.86352941176471E+0000
52  3.36470588235294E-0001  1.08705882352941E+0000  2.13529411764706E+0000
53  3.49411764705882E-0001  1.08705882352941E+0000  2.44588235294118E+0000
54  3.62352941176471E-0001  1.10000000000000E+0000  2.67882352941176E+0000
55  3.88235294117647E-0001  1.10000000000000E+0000  2.69176470588235E+0000
56  4.01176470588235E-0001  1.12588235294118E+0000  2.51058823529412E+0000
57  4.01176470588235E-0001  1.15176470588235E+0000  2.09647058823529E+0000
58  4.01176470588235E-0001  1.19058823529412E+0000  1.64352941176471E+0000
59  4.01176470588235E-0001  1.22941176470588E+0000  1.33294117647059E+0000
60  4.14117647058824E-0001  1.25529411764706E+0000  1.16470588235294E+0000
61  4.14117647058824E-0001  1.26823529411765E+0000  1.13882352941176E+0000
62  4.14117647058824E-0001  1.28117647058824E+0000  1.17764705882353E+0000
63  4.27058823529412E-0001  1.28117647058824E+0000  1.19058823529412E+0000
64  4.40000000000000E-0001  1.28117647058824E+0000  1.19058823529412E+0000
65  4.78823529411765E-0001  1.26823529411765E+0000  1.17764705882353E+0000
66  5.04705882352941E-0001  1.25529411764706E+0000  1.12588235294118E+0000
67  5.56470588235294E-0001  1.21647058823529E+0000  1.08705882352941E+0000
68  6.21176470588235E-0001  1.19058823529412E+0000  1.00941176470588E+0000
69  6.85882352941176E-0001  1.13882352941176E+0000  9.18823529411765E-0001
70  7.50588235294118E-0001  1.11294117647059E+0000  7.89411764705882E-0001
71  8.15294117647059E-0001  1.10000000000000E+0000  6.34117647058824E-0001
72  8.80000000000000E-0001  1.07411764705882E+0000  4.40000000000000E-0001
73  9.31764705882353E-0001  1.07411764705882E+0000  2.20000000000000E-0001
74  9.96470588235294E-0001  1.07411764705882E+0000  2.58823529411765E-0002
75  1.03529411764706E+0000  1.07411764705882E+0000  0.00000000000000E+0000
76  1.08705882352941E+0000  1.08705882352941E+0000  0.00000000000000E+0000
77  1.11294117647059E+0000  1.11294117647059E+0000  0.00000000000000E+0000
78  1.13882352941176E+0000  1.13882352941176E+0000  2.20000000000000E-0001
79  1.15176470588235E+0000  1.16470588235294E+0000  5.82352941176471E-0001
80  1.15176470588235E+0000  1.19058823529412E+0000  1.02235294117647E+0000
81  1.16470588235294E+0000  1.21647058823529E+0000  1.37176470588235E+0000
82  1.16470588235294E+0000  1.21647058823529E+0000  1.63058823529412E+0000
83  1.16470588235294E+0000  1.22941176470588E+0000  1.78588235294118E+0000
84  1.16470588235294E+0000  1.22941176470588E+0000  1.78588235294118E+0000
85  1.16470588235294E+0000  1.22941176470588E+0000  1.78588235294118E+0000
86  1.16470588235294E+0000  1.21647058823529E+0000  1.79882352941176E+0000
87  1.17764705882353E+0000  1.21647058823529E+0000  1.86352941176471E+0000
88  1.19058823529412E+0000  1.19058823529412E+0000  2.03176470588235E+0000
89  1.20352941176471E+0000  1.17764705882353E+0000  2.26470588235294E+0000
90  1.21647058823529E+0000  1.16470588235294E+0000  2.52352941176471E+0000
91  1.22941176470588E+0000  1.16470588235294E+0000  2.71764705882353E+0000
92  1.24235294117647E+0000  1.19058823529412E+0000  2.82117647058824E+0000
93  1.25529411764706E+0000  1.21647058823529E+0000  2.79529411764706E+0000
94  1.25529411764706E+0000  1.24235294117647E+0000  2.62705882352941E+0000
95  1.25529411764706E+0000  1.28117647058824E+0000  2.35529411764706E+0000
96  1.26823529411765E+0000  1.33294117647059E+0000  2.03176470588235E+0000
97  1.25529411764706E+0000  1.38470588235294E+0000  1.73411764705882E+0000
98  1.25529411764706E+0000  1.43647058823529E+0000  1.43647058823529E+0000
99  1.24235294117647E+0000  1.48823529411765E+0000  1.20352941176471E+0000
100  1.22941176470588E+0000  1.51411764705882E+0000  1.04823529411765E+0000
101  1.21647058823529E+0000  1.54000000000000E+0000  9.18823529411765E-0001
102  1.20352941176471E+0000  1.55294117647059E+0000  8.28235294117647E-0001
103  1.17764705882353E+0000  1.56588235294118E+0000  7.89411764705882E-0001
104  1.17764705882353E+0000  1.56588235294118E+0000  7.24705882352941E-0001
105  1.16470588235294E+0000  1.55294117647059E+0000  6.72941176470588E-0001
106  1.16470588235294E+0000  1.54000000000000E+0000  6.08235294117647E-0001
107  1.17764705882353E+0000  1.51411764705882E+0000  5.30588235294118E-0001
108  1.19058823529412E+0000  1.48823529411765E+0000  4.78823529411765E-0001
109  1.20352941176471E+0000  1.44941176470588E+0000  4.27058823529412E-0001
110  1.21647058823529E+0000  1.43647058823529E+0000  4.14117647058824E-0001
111  1.24235294117647E+0000  1.42352941176471E+0000  4.65882352941176E-0001
112  1.25529411764706E+0000  1.43647058823529E+0000  5.17647058823529E-0001
113  1.26823529411765E+0000  1.44941176470588E+0000  6.47058823529412E-0001
114  1.28117647058824E+0000  1.47529411764706E+0000  8.41176470588235E-0001
115  1.29411764705882E+0000  1.51411764705882E+0000  1.03529411764706E+0000
116  1.30705882352941E+0000  1.56588235294118E+0000  1.26823529411765E+0000
117  1.30705882352941E+0000  1.65647058823529E+0000  1.51411764705882E+0000
118  1.30705882352941E+0000  1.73411764705882E+0000  1.74705882352941E+0000
119  1.30705882352941E+0000  1.83764705882353E+0000  1.98000000000000E+0000
120  1.30705882352941E+0000  1.94117647058824E+0000  2.14823529411765E+0000
121  1.30705882352941E+0000  2.03176470588235E+0000  2.29058823529412E+0000
122  1.30705882352941E+0000  2.12235294117647E+0000  2.36823529411765E+0000
123  1.30705882352941E+0000  2.18705882352941E+0000  2.36823529411765E+0000
124  1.30705882352941E+0000  2.26470588235294E+0000  2.35529411764706E+0000
125  1.29411764705882E+0000  2.32941176470588E+0000  2.31647058823529E+0000
126  1.29411764705882E+0000  2.36823529411765E+0000  2.23882352941176E+0000
127  1.30705882352941E+0000  2.39411764705882E+0000  2.17411764705882E+0000
128  1.30705882352941E+0000  2.40705882352941E+0000  2.07058823529412E+0000
129  1.32000000000000E+0000  2.42000000000000E+0000  1.99294117647059E+0000
130  1.32000000000000E+0000  2.42000000000000E+0000  1.90235294117647E+0000
131  1.33294117647059E+0000  2.43294117647059E+0000  1.81176470588235E+0000
132  1.33294117647059E+0000  2.45882352941176E+0000  1.73411764705882E+0000
133  1.34588235294118E+0000  2.48470588235294E+0000  1.63058823529412E+0000
134  1.35882352941176E+0000  2.51058823529412E+0000  1.55294117647059E+0000
135  1.35882352941176E+0000  2.53647058823529E+0000  1.47529411764706E+0000
136  1.35882352941176E+0000  2.56235294117647E+0000  1.39764705882353E+0000
137  1.35882352941176E+0000  2.58823529411765E+0000  1.33294117647059E+0000
138  1.34588235294118E+0000  2.62705882352941E+0000  1.24235294117647E+0000
139  1.33294117647059E+0000  2.65294117647059E+0000  1.13882352941176E+0000
140  1.33294117647059E+0000  2.66588235294118E+0000  1.07411764705882E+0000
141  1.32000000000000E+0000  2.66588235294118E+0000  9.96470588235294E-0001
142  1.30705882352941E+0000  2.66588235294118E+0000  9.05882352941176E-0001
143  1.30705882352941E+0000  2.65294117647059E+0000  8.28235294117647E-0001
144  1.29411764705882E+0000  2.62705882352941E+0000  7.63529411764706E-0001
145  1.29411764705882E+0000  2.58823529411765E+0000  6.98823529411765E-0001
146  1.29411764705882E+0000  2.56235294117647E+0000  6.72941176470588E-0001
147  1.30705882352941E+0000  2.52352941176471E+0000  6.47058823529412E-0001
148  1.30705882352941E+0000  2.47176470588235E+0000  6.47058823529412E-0001
149  1.32000000000000E+0000  2.42000000000000E+0000  6.47058823529412E-0001
150  1.33294117647059E+0000  2.36823529411765E+0000  6.85882352941176E-0001
151  1.34588235294118E+0000  2.34235294117647E+0000  7.24705882352941E-0001
152  1.35882352941176E+0000  2.31647058823529E+0000  7.76470588235294E-0001
153  1.35882352941176E+0000  2.29058823529412E+0000  8.41176470588235E-0001
154  1.38470588235294E+0000  2.26470588235294E+0000  9.05882352941176E-0001
155  1.38470588235294E+0000  2.25176470588235E+0000  9.83529411764706E-0001
156  1.39764705882353E+0000  2.25176470588235E+0000  1.07411764705882E+0000
157  1.39764705882353E+0000  2.25176470588235E+0000  1.15176470588235E+0000
158  1.39764705882353E+0000  2.26470588235294E+0000  1.25529411764706E+0000
159  1.38470588235294E+0000  2.27764705882353E+0000  1.33294117647059E+0000
160  1.38470588235294E+0000  2.27764705882353E+0000  1.41058823529412E+0000
161  1.38470588235294E+0000  2.27764705882353E+0000  1.47529411764706E+0000
162  1.38470588235294E+0000  2.26470588235294E+0000  1.51411764705882E+0000
163  1.37176470588235E+0000  2.25176470588235E+0000  1.55294117647059E+0000
164  1.37176470588235E+0000  2.23882352941176E+0000  1.54000000000000E+0000
165  1.37176470588235E+0000  2.22588235294118E+0000  1.55294117647059E+0000
166  1.37176470588235E+0000  2.18705882352941E+0000  1.54000000000000E+0000
167  1.37176470588235E+0000  2.16117647058824E+0000  1.51411764705882E+0000
168  1.38470588235294E+0000  2.12235294117647E+0000  1.51411764705882E+0000
169  1.38470588235294E+0000  2.07058823529412E+0000  1.50117647058824E+0000
170  1.39764705882353E+0000  2.03176470588235E+0000  1.50117647058824E+0000
171  1.39764705882353E+0000  2.00588235294118E+0000  1.50117647058824E+0000
172  1.39764705882353E+0000  1.98000000000000E+0000  1.50117647058824E+0000
173  1.41058823529412E+0000  1.94117647058824E+0000  1.51411764705882E+0000
174  1.41058823529412E+0000  1.92823529411765E+0000  1.54000000000000E+0000
175  1.42352941176471E+0000  1.91529411764706E+0000  1.54000000000000E+0000
176  1.42352941176471E+0000  1.91529411764706E+0000  1.55294117647059E+0000
177  1.42352941176471E+0000  1.90235294117647E+0000  1.55294117647059E+0000
178  1.43647058823529E+0000  1.91529411764706E+0000  1.55294117647059E+0000
179  1.42352941176471E+0000  1.91529411764706E+0000  1.55294117647059E+0000
180  1.43647058823529E+0000  1.91529411764706E+0000  1.54000000000000E+0000
181  1.43647058823529E+0000  1.90235294117647E+0000  1.52705882352941E+0000
182  1.42352941176471E+0000  1.87647058823529E+0000  1.51411764705882E+0000
183  1.42352941176471E+0000  1.85058823529412E+0000  1.48823529411765E+0000
184  1.42352941176471E+0000  1.81176470588235E+0000  1.47529411764706E+0000
185  1.42352941176471E+0000  1.77294117647059E+0000  1.46235294117647E+0000
186  1.42352941176471E+0000  1.73411764705882E+0000  1.43647058823529E+0000
187  1.42352941176471E+0000  1.66941176470588E+0000  1.42352941176471E+0000
188  1.43647058823529E+0000  1.60470588235294E+0000  1.41058823529412E+0000
189  1.43647058823529E+0000  1.54000000000000E+0000  1.42352941176471E+0000
190  1.44941176470588E+0000  1.48823529411765E+0000  1.42352941176471E+0000
191  1.46235294117647E+0000  1.43647058823529E+0000  1.41058823529412E+0000
192  1.47529411764706E+0000  1.39764705882353E+0000  1.43647058823529E+0000
193  1.48823529411765E+0000  1.37176470588235E+0000  1.43647058823529E+0000
194  1.50117647058824E+0000  1.33294117647059E+0000  1.44941176470588E+0000
195  1.50117647058824E+0000  1.32000000000000E+0000  1.46235294117647E+0000
196  1.51411764705882E+0000  1.30705882352941E+0000  1.46235294117647E+0000
197  1.51411764705882E+0000  1.30705882352941E+0000  1.46235294117647E+0000
198  1.51411764705882E+0000  1.30705882352941E+0000  1.47529411764706E+0000
199  1.50117647058824E+0000  1.32000000000000E+0000  1.48823529411765E+0000
200  1.50117647058824E+0000  1.33294117647059E+0000  1.50117647058824E+0000
201  1.51411764705882E+0000  1.33294117647059E+0000  1.47529411764706E+0000
202  1.51411764705882E+0000  1.33294117647059E+0000  1.47529411764706E+0000
203  1.51411764705882E+0000  1.32000000000000E+0000  1.46235294117647E+0000
204  1.51411764705882E+0000  1.29411764705882E+0000  1.43647058823529E+0000
205  1.51411764705882E+0000  1.26823529411765E+0000  1.43647058823529E+0000
206  1.51411764705882E+0000  1.24235294117647E+0000  1.39764705882353E+0000
207  1.51411764705882E+0000  1.20352941176471E+0000  1.37176470588235E+0000
208  1.51411764705882E+0000  1.15176470588235E+0000  1.37176470588235E+0000
209  1.52705882352941E+0000  1.10000000000000E+0000  1.34588235294118E+0000
210  1.52705882352941E+0000  1.06117647058824E+0000  1.33294117647059E+0000
211  1.54000000000000E+0000  1.03529411764706E+0000  1.32000000000000E+0000
212  1.55294117647059E+0000  1.00941176470588E+0000  1.30705882352941E+0000
213  1.56588235294118E+0000  9.96470588235294E-0001  1.29411764705882E+0000
214  1.57882352941176E+0000  9.83529411764706E-0001  1.28117647058824E+0000
215  1.57882352941176E+0000  9.70588235294118E-0001  1.28117647058824E+0000
216  1.59176470588235E+0000  9.83529411764706E-0001  1.26823529411765E+0000
217  1.59176470588235E+0000  9.96470588235294E-0001  1.25529411764706E+0000
218  1.57882352941176E+0000  1.02235294117647E+0000  1.24235294117647E+0000
219  1.57882352941176E+0000  1.04823529411765E+0000  1.24235294117647E+0000
220  1.57882352941176E+0000  1.06117647058824E+0000  1.22941176470588E+0000
221  1.57882352941176E+0000  1.07411764705882E+0000  1.22941176470588E+0000
222  1.57882352941176E+0000  1.07411764705882E+0000  1.21647058823529E+0000
223  1.57882352941176E+0000  1.07411764705882E+0000  1.20352941176471E+0000
224  1.57882352941176E+0000  1.06117647058824E+0000  1.20352941176471E+0000
225  1.57882352941176E+0000  1.04823529411765E+0000  1.19058823529412E+0000
226  1.56588235294118E+0000  1.00941176470588E+0000  1.20352941176471E+0000
227  1.57882352941176E+0000  9.83529411764706E-0001  1.20352941176471E+0000
228  1.59176470588235E+0000  9.31764705882353E-0001  1.20352941176471E+0000
229  1.60470588235294E+0000  8.92941176470588E-0001  1.21647058823529E+0000
230  1.60470588235294E+0000  8.54117647058824E-0001  1.22941176470588E+0000
231  1.61764705882353E+0000  8.41176470588235E-0001  1.24235294117647E+0000
232  1.61764705882353E+0000  8.15294117647059E-0001  1.25529411764706E+0000
233  1.63058823529412E+0000  8.02352941176471E-0001  1.26823529411765E+0000
234  1.64352941176471E+0000  8.15294117647059E-0001  1.28117647058824E+0000
235  1.65647058823529E+0000  8.15294117647059E-0001  1.30705882352941E+0000
236  1.65647058823529E+0000  8.28235294117647E-0001  1.32000000000000E+0000
237  1.65647058823529E+0000  8.41176470588235E-0001  1.33294117647059E+0000
238  1.65647058823529E+0000  8.67058823529412E-0001  1.34588235294118E+0000
239  1.64352941176471E+0000  9.05882352941176E-0001  1.35882352941176E+0000
240  1.63058823529412E+0000  9.31764705882353E-0001  1.38470588235294E+0000
241  1.63058823529412E+0000  9.57647058823529E-0001  1.39764705882353E+0000
242  1.63058823529412E+0000  9.57647058823529E-0001  1.41058823529412E+0000
243  1.63058823529412E+0000  9.57647058823529E-0001  1.42352941176471E+0000
244  1.61764705882353E+0000  9.57647058823529E-0001  1.43647058823529E+0000
245  1.63058823529412E+0000  9.57647058823529E-0001  1.43647058823529E+0000
246  1.63058823529412E+0000  9.31764705882353E-0001  1.44941176470588E+0000
247  1.63058823529412E+0000  9.05882352941176E-0001  1.44941176470588E+0000
248  1.64352941176471E+0000  8.80000000000000E-0001  1.44941176470588E+0000
249  1.64352941176471E+0000  8.41176470588235E-0001  1.44941176470588E+0000
250  1.65647058823529E+0000  8.15294117647059E-0001  1.44941176470588E+0000
251  1.65647058823529E+0000  8.02352941176471E-0001  1.43647058823529E+0000
252  1.66941176470588E+0000  7.89411764705882E-0001  1.44941176470588E+0000
253  1.66941176470588E+0000  7.89411764705882E-0001  1.43647058823529E+0000
254  1.68235294117647E+0000  8.02352941176471E-0001  1.43647058823529E+0000
255  1.69529411764706E+0000  8.02352941176471E-0001  1.43647058823529E+0000
256  1.69529411764706E+0000  8.28235294117647E-0001  1.43647058823529E+0000
257  1.68235294117647E+0000  8.54117647058824E-0001  1.43647058823529E+0000
258  1.68235294117647E+0000  8.92941176470588E-0001  1.42352941176471E+0000
259  1.66941176470588E+0000  9.18823529411765E-0001  1.39764705882353E+0000
260  1.65647058823529E+0000  9.57647058823529E-0001  1.41058823529412E+0000
261  1.64352941176471E+0000  9.83529411764706E-0001  1.39764705882353E+0000
262  1.63058823529412E+0000  9.96470588235294E-0001  1.38470588235294E+0000
263  1.64352941176471E+0000  1.02235294117647E+0000  1.39764705882353E+0000
264  1.63058823529412E+0000  1.02235294117647E+0000  1.38470588235294E+0000
265  1.61764705882353E+0000  1.02235294117647E+0000  1.37176470588235E+0000
266  1.61764705882353E+0000  1.00941176470588E+0000  1.37176470588235E+0000
267  1.61764705882353E+0000  9.96470588235294E-0001  1.35882352941176E+0000
268  1.60470588235294E+0000  9.70588235294118E-0001  1.34588235294118E+0000
269  1.61764705882353E+0000  9.44705882352941E-0001  1.37176470588235E+0000
270  1.61764705882353E+0000  9.18823529411765E-0001  1.35882352941176E+0000
271  1.61764705882353E+0000  9.05882352941176E-0001  1.35882352941176E+0000
272  1.61764705882353E+0000  9.05882352941176E-0001  1.35882352941176E+0000
273  1.63058823529412E+0000  9.05882352941176E-0001  1.34588235294118E+0000
274  1.63058823529412E+0000  9.18823529411765E-0001  1.34588235294118E+0000
275  1.63058823529412E+0000  9.44705882352941E-0001  1.34588235294118E+0000
276  1.63058823529412E+0000  9.57647058823529E-0001  1.33294117647059E+0000
277  1.63058823529412E+0000  9.96470588235294E-0001  1.33294117647059E+0000
278  1.61764705882353E+0000  1.03529411764706E+0000  1.33294117647059E+0000
279  1.60470588235294E+0000  1.07411764705882E+0000  1.32000000000000E+0000
280  1.59176470588235E+0000  1.11294117647059E+0000  1.32000000000000E+0000
281  1.57882352941176E+0000  1.13882352941176E+0000  1.32000000000000E+0000
282  1.56588235294118E+0000  1.16470588235294E+0000  1.32000000000000E+0000
283  1.56588235294118E+0000  1.17764705882353E+0000  1.32000000000000E+0000
284  1.55294117647059E+0000  1.19058823529412E+0000  1.30705882352941E+0000
285  1.54000000000000E+0000  1.19058823529412E+0000  1.32000000000000E+0000
286  1.52705882352941E+0000  1.17764705882353E+0000  1.32000000000000E+0000
287  1.52705882352941E+0000  1.16470588235294E+0000  1.33294117647059E+0000
288  1.52705882352941E+0000  1.13882352941176E+0000  1.33294117647059E+0000
289  1.52705882352941E+0000  1.11294117647059E+0000  1.33294117647059E+0000
290  1.52705882352941E+0000  1.08705882352941E+0000  1.34588235294118E+0000
291  1.52705882352941E+0000  1.07411764705882E+0000  1.35882352941176E+0000
292  1.52705882352941E+0000  1.07411764705882E+0000  1.35882352941176E+0000
293  1.52705882352941E+0000  1.07411764705882E+0000  1.35882352941176E+0000
294  1.52705882352941E+0000  1.08705882352941E+0000  1.35882352941176E+0000
295  1.52705882352941E+0000  1.08705882352941E+0000  1.35882352941176E+0000
296  1.52705882352941E+0000  1.11294117647059E+0000  1.35882352941176E+0000
297  1.51411764705882E+0000  1.13882352941176E+0000  1.37176470588235E+0000
298  1.50117647058824E+0000  1.17764705882353E+0000  1.37176470588235E+0000
299  1.50117647058824E+0000  1.21647058823529E+0000  1.37176470588235E+0000
300  1.47529411764706E+0000  1.25529411764706E+0000  1.35882352941176E+0000
301  1.47529411764706E+0000  1.26823529411765E+0000  1.35882352941176E+0000
302  1.46235294117647E+0000  1.28117647058824E+0000  1.35882352941176E+0000
303  1.46235294117647E+0000  1.29411764705882E+0000  1.35882352941176E+0000
304  1.43647058823529E+0000  1.29411764705882E+0000  1.35882352941176E+0000
305  1.43647058823529E+0000  1.28117647058824E+0000  1.35882352941176E+0000
306  1.42352941176471E+0000  1.25529411764706E+0000  1.35882352941176E+0000
307  1.42352941176471E+0000  1.24235294117647E+0000  1.34588235294118E+0000
308  1.42352941176471E+0000  1.20352941176471E+0000  1.37176470588235E+0000
309  1.42352941176471E+0000  1.16470588235294E+0000  1.38470588235294E+0000
310  1.42352941176471E+0000  1.13882352941176E+0000  1.37176470588235E+0000
311  1.41058823529412E+0000  1.11294117647059E+0000  1.39764705882353E+0000
312  1.41058823529412E+0000  1.08705882352941E+0000  1.39764705882353E+0000
313  1.41058823529412E+0000  1.08705882352941E+0000  1.39764705882353E+0000
314  1.41058823529412E+0000  1.08705882352941E+0000  1.42352941176471E+0000
315  1.41058823529412E+0000  1.08705882352941E+0000  1.41058823529412E+0000
316  1.42352941176471E+0000  1.11294117647059E+0000  1.42352941176471E+0000
317  1.41058823529412E+0000  1.11294117647059E+0000  1.43647058823529E+0000
318  1.41058823529412E+0000  1.15176470588235E+0000  1.43647058823529E+0000
319  1.39764705882353E+0000  1.17764705882353E+0000  1.44941176470588E+0000
320  1.38470588235294E+0000  1.20352941176471E+0000  1.44941176470588E+0000
321  1.37176470588235E+0000  1.22941176470588E+0000  1.43647058823529E+0000
322  1.37176470588235E+0000  1.24235294117647E+0000  1.44941176470588E+0000
323  1.35882352941176E+0000  1.24235294117647E+0000  1.43647058823529E+0000
324  1.34588235294118E+0000  1.22941176470588E+0000  1.44941176470588E+0000
325  1.33294117647059E+0000  1.21647058823529E+0000  1.44941176470588E+0000
326  1.33294117647059E+0000  1.19058823529412E+0000  1.44941176470588E+0000
327  1.33294117647059E+0000  1.16470588235294E+0000  1.46235294117647E+0000
328  1.33294117647059E+0000  1.12588235294118E+0000  1.43647058823529E+0000
329  1.33294117647059E+0000  1.07411764705882E+0000  1.42352941176471E+0000
330  1.33294117647059E+0000  1.04823529411765E+0000  1.43647058823529E+0000
331  1.34588235294118E+0000  1.00941176470588E+0000  1.39764705882353E+0000
332  1.33294117647059E+0000  9.96470588235294E-0001  1.38470588235294E+0000
333  1.33294117647059E+0000  9.83529411764706E-0001  1.37176470588235E+0000
334  1.34588235294118E+0000  9.70588235294118E-0001  1.34588235294118E+0000
335  1.34588235294118E+0000  9.70588235294118E-0001  1.32000000000000E+0000
336  1.34588235294118E+0000  9.70588235294118E-0001  1.29411764705882E+0000
337  1.34588235294118E+0000  9.70588235294118E-0001  1.25529411764706E+0000
338  1.34588235294118E+0000  9.83529411764706E-0001  1.22941176470588E+0000
339  1.33294117647059E+0000  1.00941176470588E+0000  1.22941176470588E+0000
340  1.32000000000000E+0000  1.02235294117647E+0000  1.24235294117647E+0000
341  1.32000000000000E+0000  1.02235294117647E+0000  1.28117647058824E+0000
342  1.30705882352941E+0000  1.00941176470588E+0000  1.29411764705882E+0000
343  1.29411764705882E+0000  1.00941176470588E+0000  1.28117647058824E+0000
344  1.28117647058824E+0000  9.83529411764706E-0001  1.26823529411765E+0000
345  1.28117647058824E+0000  9.57647058823529E-0001  1.25529411764706E+0000
346  1.26823529411765E+0000  9.18823529411765E-0001  1.19058823529412E+0000
347  1.26823529411765E+0000  8.67058823529412E-0001  1.07411764705882E+0000
348  1.26823529411765E+0000  8.15294117647059E-0001  9.31764705882353E-0001
349  1.26823529411765E+0000  7.63529411764706E-0001  8.02352941176471E-0001
350  1.26823529411765E+0000  7.11764705882353E-0001  7.89411764705882E-0001
351  1.28117647058824E+0000  6.72941176470588E-0001  8.41176470588235E-0001
352  1.28117647058824E+0000  6.34117647058824E-0001  9.05882352941176E-0001
353  1.28117647058824E+0000  6.08235294117647E-0001  9.83529411764706E-0001
354  1.29411764705882E+0000  5.95294117647059E-0001  1.02235294117647E+0000
355  1.29411764705882E+0000  5.82352941176471E-0001  1.00941176470588E+0000
356  1.30705882352941E+0000  5.82352941176471E-0001  1.02235294117647E+0000
357  1.30705882352941E+0000  5.95294117647059E-0001  1.07411764705882E+0000
358  1.30705882352941E+0000  6.21176470588235E-0001  1.16470588235294E+0000
359  1.30705882352941E+0000  6.47058823529412E-0001  1.28117647058824E+0000
360  1.30705882352941E+0000  6.85882352941176E-0001  1.39764705882353E+0000
361  1.29411764705882E+0000  7.11764705882353E-0001  1.54000000000000E+0000
362  1.29411764705882E+0000  7.24705882352941E-0001  1.66941176470588E+0000
363  1.28117647058824E+0000  7.37647058823529E-0001  1.77294117647059E+0000
364  1.28117647058824E+0000  7.50588235294118E-0001  1.88941176470588E+0000
365  1.26823529411765E+0000  7.37647058823529E-0001  1.98000000000000E+0000
366  1.26823529411765E+0000  7.24705882352941E-0001  2.01882352941176E+0000
367  1.26823529411765E+0000  6.98823529411765E-0001  2.08352941176471E+0000
368  1.26823529411765E+0000  6.60000000000000E-0001  2.14823529411765E+0000
369  1.28117647058824E+0000  6.21176470588235E-0001  2.17411764705882E+0000
370  1.28117647058824E+0000  5.95294117647059E-0001  2.17411764705882E+0000
371  1.28117647058824E+0000  5.82352941176471E-0001  2.16117647058824E+0000
372  1.28117647058824E+0000  5.82352941176471E-0001  2.13529411764706E+0000
373  1.28117647058824E+0000  6.08235294117647E-0001  2.09647058823529E+0000
374  1.29411764705882E+0000  6.47058823529412E-0001  2.05764705882353E+0000
375  1.29411764705882E+0000  6.98823529411765E-0001  1.98000000000000E+0000
376  1.29411764705882E+0000  7.63529411764706E-0001  1.91529411764706E+0000
377  1.29411764705882E+0000  8.41176470588235E-0001  1.82470588235294E+0000
378  1.29411764705882E+0000  9.18823529411765E-0001  1.72117647058824E+0000
379  1.28117647058824E+0000  1.00941176470588E+0000  1.57882352941176E+0000
380  1.28117647058824E+0000  1.08705882352941E+0000  1.43647058823529E+0000
381  1.28117647058824E+0000  1.16470588235294E+0000  1.33294117647059E+0000
382  1.26823529411765E+0000  1.22941176470588E+0000  1.20352941176471E+0000
383  1.26823529411765E+0000  1.28117647058824E+0000  1.08705882352941E+0000
384  1.26823529411765E+0000  1.33294117647059E+0000  9.96470588235294E-0001
385  1.25529411764706E+0000  1.38470588235294E+0000  8.80000000000000E-0001
386  1.25529411764706E+0000  1.41058823529412E+0000  8.41176470588235E-0001
387  1.25529411764706E+0000  1.42352941176471E+0000  7.76470588235294E-0001
388  1.26823529411765E+0000  1.41058823529412E+0000  7.11764705882353E-0001
389  1.26823529411765E+0000  1.39764705882353E+0000  6.85882352941176E-0001
390  1.28117647058824E+0000  1.37176470588235E+0000  6.98823529411765E-0001
391  1.28117647058824E+0000  1.35882352941176E+0000  6.98823529411765E-0001
392  1.28117647058824E+0000  1.33294117647059E+0000  7.24705882352941E-0001
393  1.29411764705882E+0000  1.32000000000000E+0000  7.76470588235294E-0001
394  1.29411764705882E+0000  1.32000000000000E+0000  8.15294117647059E-0001
395  1.29411764705882E+0000  1.32000000000000E+0000  8.67058823529412E-0001
396  1.29411764705882E+0000  1.33294117647059E+0000  9.31764705882353E-0001
397  1.28117647058824E+0000  1.34588235294118E+0000  9.70588235294118E-0001
398  1.28117647058824E+0000  1.38470588235294E+0000  9.96470588235294E-0001
399  1.26823529411765E+0000  1.41058823529412E+0000  1.03529411764706E+0000
400  1.26823529411765E+0000  1.43647058823529E+0000  1.07411764705882E+0000
401  1.25529411764706E+0000  1.44941176470588E+0000  1.11294117647059E+0000
402  1.25529411764706E+0000  1.46235294117647E+0000  1.15176470588235E+0000
403  1.25529411764706E+0000  1.46235294117647E+0000  1.17764705882353E+0000
404  1.24235294117647E+0000  1.46235294117647E+0000  1.24235294117647E+0000
405  1.24235294117647E+0000  1.46235294117647E+0000  1.32000000000000E+0000
406  1.24235294117647E+0000  1.46235294117647E+0000  1.38470588235294E+0000
407  1.24235294117647E+0000  1.46235294117647E+0000  1.44941176470588E+0000
408  1.25529411764706E+0000  1.44941176470588E+0000  1.51411764705882E+0000
409  1.25529411764706E+0000  1.44941176470588E+0000  1.56588235294118E+0000
410  1.26823529411765E+0000  1.43647058823529E+0000  1.63058823529412E+0000
411  1.28117647058824E+0000  1.43647058823529E+0000  1.68235294117647E+0000
412  1.28117647058824E+0000  1.44941176470588E+0000  1.69529411764706E+0000
413  1.28117647058824E+0000  1.44941176470588E+0000  1.70823529411765E+0000
414  1.29411764705882E+0000  1.44941176470588E+0000  1.70823529411765E+0000
415  1.29411764705882E+0000  1.46235294117647E+0000  1.72117647058824E+0000
416  1.29411764705882E+0000  1.46235294117647E+0000  1.70823529411765E+0000
417  1.29411764705882E+0000  1.46235294117647E+0000  1.66941176470588E+0000
418  1.28117647058824E+0000  1.47529411764706E+0000  1.65647058823529E+0000
419  1.28117647058824E+0000  1.48823529411765E+0000  1.63058823529412E+0000
420  1.26823529411765E+0000  1.51411764705882E+0000  1.57882352941176E+0000
421  1.26823529411765E+0000  1.51411764705882E+0000  1.54000000000000E+0000
422  1.25529411764706E+0000  1.52705882352941E+0000  1.51411764705882E+0000
423  1.25529411764706E+0000  1.52705882352941E+0000  1.48823529411765E+0000
424  1.24235294117647E+0000  1.54000000000000E+0000  1.44941176470588E+0000
425  1.24235294117647E+0000  1.54000000000000E+0000  1.42352941176471E+0000
426  1.24235294117647E+0000  1.54000000000000E+0000  1.39764705882353E+0000
427  1.24235294117647E+0000  1.52705882352941E+0000  1.38470588235294E+0000
428  1.24235294117647E+0000  1.51411764705882E+0000  1.37176470588235E+0000
429  1.25529411764706E+0000  1.48823529411765E+0000  1.34588235294118E+0000
430  1.26823529411765E+0000  1.46235294117647E+0000  1.33294117647059E+0000
431  1.26823529411765E+0000  1.43647058823529E+0000  1.33294117647059E+0000
432  1.28117647058824E+0000  1.42352941176471E+0000  1.32000000000000E+0000
433  1.28117647058824E+0000  1.39764705882353E+0000  1.30705882352941E+0000
434  1.29411764705882E+0000  1.39764705882353E+0000  1.29411764705882E+0000
435  1.29411764705882E+0000  1.38470588235294E+0000  1.26823529411765E+0000
436  1.29411764705882E+0000  1.37176470588235E+0000  1.26823529411765E+0000
437  1.29411764705882E+0000  1.38470588235294E+0000  1.28117647058824E+0000
438  1.28117647058824E+0000  1.39764705882353E+0000  1.28117647058824E+0000
439  1.28117647058824E+0000  1.41058823529412E+0000  1.26823529411765E+0000
440  1.26823529411765E+0000  1.42352941176471E+0000  1.26823529411765E+0000
441  1.26823529411765E+0000  1.42352941176471E+0000  1.28117647058824E+0000
442  1.25529411764706E+0000  1.42352941176471E+0000  1.29411764705882E+0000
443  1.25529411764706E+0000  1.42352941176471E+0000  1.30705882352941E+0000
444  1.25529411764706E+0000  1.41058823529412E+0000  1.30705882352941E+0000
445  1.24235294117647E+0000  1.38470588235294E+0000  1.32000000000000E+0000
446  1.24235294117647E+0000  1.35882352941176E+0000  1.35882352941176E+0000
447  1.24235294117647E+0000  1.33294117647059E+0000  1.37176470588235E+0000
448  1.24235294117647E+0000  1.29411764705882E+0000  1.39764705882353E+0000
449  1.24235294117647E+0000  1.25529411764706E+0000  1.39764705882353E+0000
450  1.25529411764706E+0000  1.22941176470588E+0000  1.39764705882353E+0000
451  1.25529411764706E+0000  1.20352941176471E+0000  1.41058823529412E+0000
452  1.25529411764706E+0000  1.17764705882353E+0000  1.41058823529412E+0000
453  1.26823529411765E+0000  1.16470588235294E+0000  1.38470588235294E+0000
454  1.28117647058824E+0000  1.16470588235294E+0000  1.38470588235294E+0000
455  1.28117647058824E+0000  1.16470588235294E+0000  1.38470588235294E+0000
456  1.29411764705882E+0000  1.17764705882353E+0000  1.38470588235294E+0000
457  1.29411764705882E+0000  1.17764705882353E+0000  1.38470588235294E+0000
458  1.29411764705882E+0000  1.21647058823529E+0000  1.37176470588235E+0000
459  1.28117647058824E+0000  1.24235294117647E+0000  1.38470588235294E+0000
460  1.28117647058824E+0000  1.26823529411765E+0000  1.38470588235294E+0000
461  1.28117647058824E+0000  1.29411764705882E+0000  1.38470588235294E+0000
462  1.26823529411765E+0000  1.30705882352941E+0000  1.39764705882353E+0000
463  1.25529411764706E+0000  1.30705882352941E+0000  1.37176470588235E+0000
464  1.25529411764706E+0000  1.30705882352941E+0000  1.39764705882353E+0000
465  1.24235294117647E+0000  1.29411764705882E+0000  1.39764705882353E+0000
466  1.24235294117647E+0000  1.26823529411765E+0000  1.39764705882353E+0000
467  1.24235294117647E+0000  1.24235294117647E+0000  1.39764705882353E+0000
468  1.24235294117647E+0000  1.21647058823529E+0000  1.38470588235294E+0000
469  1.25529411764706E+0000  1.17764705882353E+0000  1.38470588235294E+0000
470  1.25529411764706E+0000  1.13882352941176E+0000  1.39764705882353E+0000
471  1.25529411764706E+0000  1.12588235294118E+0000  1.37176470588235E+0000
472  1.26823529411765E+0000  1.10000000000000E+0000  1.37176470588235E+0000
473  1.26823529411765E+0000  1.10000000000000E+0000  1.34588235294118E+0000
474  1.26823529411765E+0000  1.10000000000000E+0000  1.34588235294118E+0000
475  1.26823529411765E+0000  1.10000000000000E+0000  1.34588235294118E+0000
476  1.28117647058824E+0000  1.11294117647059E+0000  1.30705882352941E+0000
477  1.28117647058824E+0000  1.12588235294118E+0000  1.29411764705882E+0000
478  1.28117647058824E+0000  1.15176470588235E+0000  1.29411764705882E+0000
479  1.28117647058824E+0000  1.19058823529412E+0000  1.30705882352941E+0000
480  1.28117647058824E+0000  1.21647058823529E+0000  1.32000000000000E+0000
481  1.28117647058824E+0000  1.24235294117647E+0000  1.30705882352941E+0000
482  1.26823529411765E+0000  1.25529411764706E+0000  1.30705882352941E+0000
483  1.26823529411765E+0000  1.25529411764706E+0000  1.34588235294118E+0000
484  1.26823529411765E+0000  1.25529411764706E+0000  1.34588235294118E+0000
485  1.25529411764706E+0000  1.24235294117647E+0000  1.34588235294118E+0000
486  1.24235294117647E+0000  1.21647058823529E+0000  1.34588235294118E+0000
487  1.24235294117647E+0000  1.19058823529412E+0000  1.34588235294118E+0000
488  1.24235294117647E+0000  1.15176470588235E+0000  1.35882352941176E+0000
489  1.25529411764706E+0000  1.11294117647059E+0000  1.35882352941176E+0000
490  1.25529411764706E+0000  1.07411764705882E+0000  1.34588235294118E+0000
491  1.25529411764706E+0000  1.04823529411765E+0000  1.34588235294118E+0000
492  1.26823529411765E+0000  1.02235294117647E+0000  1.34588235294118E+0000
493  1.26823529411765E+0000  1.00941176470588E+0000  1.34588235294118E+0000
494  1.26823529411765E+0000  1.00941176470588E+0000  1.34588235294118E+0000
495  1.28117647058824E+0000  1.00941176470588E+0000  1.34588235294118E+0000
496  1.28117647058824E+0000  1.02235294117647E+0000  1.35882352941176E+0000
497  1.28117647058824E+0000  1.04823529411765E+0000  1.35882352941176E+0000
498  1.26823529411765E+0000  1.07411764705882E+0000  1.35882352941176E+0000
499  1.26823529411765E+0000  1.10000000000000E+0000  1.35882352941176E+0000
500  1.26823529411765E+0000  1.12588235294118E+0000  1.37176470588235E+0000
501  1.25529411764706E+0000  1.15176470588235E+0000  1.38470588235294E+0000
502  1.25529411764706E+0000  1.16470588235294E+0000  1.38470588235294E+0000
503  1.25529411764706E+0000  1.16470588235294E+0000  1.39764705882353E+0000
504  1.24235294117647E+0000  1.16470588235294E+0000  1.38470588235294E+0000
505  1.24235294117647E+0000  1.15176470588235E+0000  1.38470588235294E+0000
506  1.22941176470588E+0000  1.13882352941176E+0000  1.38470588235294E+0000
507  1.24235294117647E+0000  1.11294117647059E+0000  1.38470588235294E+0000
508  1.24235294117647E+0000  1.08705882352941E+0000  1.38470588235294E+0000
509  1.24235294117647E+0000  1.04823529411765E+0000  1.37176470588235E+0000
510  1.25529411764706E+0000  1.00941176470588E+0000  1.37176470588235E+0000
511  1.25529411764706E+0000  9.83529411764706E-0001  1.37176470588235E+0000
512  1.26823529411765E+0000  9.70588235294118E-0001  1.35882352941176E+0000
513  1.26823529411765E+0000  9.57647058823529E-0001  1.34588235294118E+0000
514  1.28117647058824E+0000  9.57647058823529E-0001  1.34588235294118E+0000
515  1.28117647058824E+0000  9.70588235294118E-0001  1.34588235294118E+0000
516  1.29411764705882E+0000  9.83529411764706E-0001  1.34588235294118E+0000
517  1.29411764705882E+0000  9.96470588235294E-0001  1.34588235294118E+0000
518  1.28117647058824E+0000  1.03529411764706E+0000  1.35882352941176E+0000
519  1.26823529411765E+0000  1.06117647058824E+0000  1.37176470588235E+0000
520  1.26823529411765E+0000  1.08705882352941E+0000  1.37176470588235E+0000
521  1.26823529411765E+0000  1.11294117647059E+0000  1.38470588235294E+0000
522  1.25529411764706E+0000  1.13882352941176E+0000  1.38470588235294E+0000
523  1.25529411764706E+0000  1.13882352941176E+0000  1.39764705882353E+0000
524  1.25529411764706E+0000  1.13882352941176E+0000  1.39764705882353E+0000
525  1.24235294117647E+0000  1.13882352941176E+0000  1.39764705882353E+0000
526  1.22941176470588E+0000  1.12588235294118E+0000  1.39764705882353E+0000
527  1.24235294117647E+0000  1.10000000000000E+0000  1.39764705882353E+0000
528  1.24235294117647E+0000  1.07411764705882E+0000  1.41058823529412E+0000
529  1.24235294117647E+0000  1.04823529411765E+0000  1.39764705882353E+0000
530  1.25529411764706E+0000  1.00941176470588E+0000  1.38470588235294E+0000
531  1.25529411764706E+0000  9.96470588235294E-0001  1.37176470588235E+0000
532  1.25529411764706E+0000  9.83529411764706E-0001  1.35882352941176E+0000
533  1.26823529411765E+0000  9.83529411764706E-0001  1.35882352941176E+0000
534  1.26823529411765E+0000  9.83529411764706E-0001  1.35882352941176E+0000
535  1.28117647058824E+0000  9.83529411764706E-0001  1.35882352941176E+0000
536  1.28117647058824E+0000  9.96470588235294E-0001  1.33294117647059E+0000
537  1.28117647058824E+0000  1.02235294117647E+0000  1.33294117647059E+0000
538  1.28117647058824E+0000  1.04823529411765E+0000  1.33294117647059E+0000
539  1.26823529411765E+0000  1.08705882352941E+0000  1.33294117647059E+0000
540  1.25529411764706E+0000  1.12588235294118E+0000  1.32000000000000E+0000
541  1.25529411764706E+0000  1.15176470588235E+0000  1.32000000000000E+0000
542  1.24235294117647E+0000  1.16470588235294E+0000  1.33294117647059E+0000
543  1.24235294117647E+0000  1.17764705882353E+0000  1.34588235294118E+0000
544  1.22941176470588E+0000  1.17764705882353E+0000  1.34588235294118E+0000
545  1.22941176470588E+0000  1.16470588235294E+0000  1.35882352941176E+0000
546  1.22941176470588E+0000  1.15176470588235E+0000  1.35882352941176E+0000
547  1.21647058823529E+0000  1.12588235294118E+0000  1.35882352941176E+0000
548  1.21647058823529E+0000  1.10000000000000E+0000  1.37176470588235E+0000
549  1.22941176470588E+0000  1.06117647058824E+0000  1.35882352941176E+0000
550  1.22941176470588E+0000  1.03529411764706E+0000  1.35882352941176E+0000
551  1.22941176470588E+0000  1.00941176470588E+0000  1.37176470588235E+0000
552  1.22941176470588E+0000  1.00941176470588E+0000  1.37176470588235E+0000
553  1.22941176470588E+0000  9.96470588235294E-0001  1.35882352941176E+0000
554  1.24235294117647E+0000  1.00941176470588E+0000  1.35882352941176E+0000
555  1.24235294117647E+0000  1.02235294117647E+0000  1.35882352941176E+0000
556  1.25529411764706E+0000  1.02235294117647E+0000  1.37176470588235E+0000
557  1.26823529411765E+0000  1.04823529411765E+0000  1.37176470588235E+0000
558  1.25529411764706E+0000  1.07411764705882E+0000  1.37176470588235E+0000
559  1.25529411764706E+0000  1.10000000000000E+0000  1.34588235294118E+0000
560  1.25529411764706E+0000  1.12588235294118E+0000  1.35882352941176E+0000
561  1.25529411764706E+0000  1.15176470588235E+0000  1.38470588235294E+0000
562  1.24235294117647E+0000  1.16470588235294E+0000  1.38470588235294E+0000
563  1.24235294117647E+0000  1.17764705882353E+0000  1.38470588235294E+0000
564  1.22941176470588E+0000  1.17764705882353E+0000  1.35882352941176E+0000
565  1.22941176470588E+0000  1.17764705882353E+0000  1.37176470588235E+0000
566  1.21647058823529E+0000  1.16470588235294E+0000  1.38470588235294E+0000
567  1.20352941176471E+0000  1.13882352941176E+0000  1.38470588235294E+0000
568  1.20352941176471E+0000  1.11294117647059E+0000  1.39764705882353E+0000
569  1.21647058823529E+0000  1.07411764705882E+0000  1.38470588235294E+0000
570  1.22941176470588E+0000  1.04823529411765E+0000  1.38470588235294E+0000
571  1.22941176470588E+0000  1.02235294117647E+0000  1.38470588235294E+0000
572  1.24235294117647E+0000  9.96470588235294E-0001  1.38470588235294E+0000
573  1.24235294117647E+0000  9.96470588235294E-0001  1.37176470588235E+0000
574  1.25529411764706E+0000  9.96470588235294E-0001  1.37176470588235E+0000
575  1.25529411764706E+0000  9.96470588235294E-0001  1.38470588235294E+0000
576  1.26823529411765E+0000  1.00941176470588E+0000  1.38470588235294E+0000
577  1.26823529411765E+0000  1.02235294117647E+0000  1.37176470588235E+0000
578  1.25529411764706E+0000  1.04823529411765E+0000  1.37176470588235E+0000
579  1.25529411764706E+0000  1.08705882352941E+0000  1.37176470588235E+0000
580  1.24235294117647E+0000  1.12588235294118E+0000  1.37176470588235E+0000
581  1.24235294117647E+0000  1.13882352941176E+0000  1.37176470588235E+0000
582  1.22941176470588E+0000  1.16470588235294E+0000  1.35882352941176E+0000
583  1.22941176470588E+0000  1.16470588235294E+0000  1.35882352941176E+0000
584  1.22941176470588E+0000  1.16470588235294E+0000  1.38470588235294E+0000
585  1.22941176470588E+0000  1.16470588235294E+0000  1.38470588235294E+0000
586  1.22941176470588E+0000  1.15176470588235E+0000  1.38470588235294E+0000
587  1.21647058823529E+0000  1.13882352941176E+0000  1.37176470588235E+0000
588  1.21647058823529E+0000  1.11294117647059E+0000  1.38470588235294E+0000
589  1.22941176470588E+0000  1.07411764705882E+0000  1.38470588235294E+0000
590  1.22941176470588E+0000  1.04823529411765E+0000  1.37176470588235E+0000
591  1.24235294117647E+0000  1.02235294117647E+0000  1.35882352941176E+0000
592  1.24235294117647E+0000  1.00941176470588E+0000  1.37176470588235E+0000
593  1.25529411764706E+0000  9.96470588235294E-0001  1.37176470588235E+0000
594  1.25529411764706E+0000  9.96470588235294E-0001  1.37176470588235E+0000
595  1.26823529411765E+0000  9.96470588235294E-0001  1.35882352941176E+0000
596  1.26823529411765E+0000  1.00941176470588E+0000  1.35882352941176E+0000
597  1.26823529411765E+0000  1.03529411764706E+0000  1.34588235294118E+0000
598  1.25529411764706E+0000  1.06117647058824E+0000  1.35882352941176E+0000
599  1.24235294117647E+0000  1.10000000000000E+0000  1.34588235294118E+0000
600  1.24235294117647E+0000  1.13882352941176E+0000  1.32000000000000E+0000
601  1.22941176470588E+0000  1.16470588235294E+0000  1.32000000000000E+0000
602  1.22941176470588E+0000  1.17764705882353E+0000  1.33294117647059E+0000
603  1.22941176470588E+0000  1.19058823529412E+0000  1.32000000000000E+0000
604  1.22941176470588E+0000  1.19058823529412E+0000  1.32000000000000E+0000
605  1.22941176470588E+0000  1.19058823529412E+0000  1.30705882352941E+0000
606  1.21647058823529E+0000  1.16470588235294E+0000  1.30705882352941E+0000
607  1.22941176470588E+0000  1.15176470588235E+0000  1.34588235294118E+0000
608  1.22941176470588E+0000  1.12588235294118E+0000  1.32000000000000E+0000
609  1.21647058823529E+0000  1.10000000000000E+0000  1.30705882352941E+0000
610  1.22941176470588E+0000  1.06117647058824E+0000  1.32000000000000E+0000
611  1.22941176470588E+0000  1.03529411764706E+0000  1.33294117647059E+0000
612  1.22941176470588E+0000  1.02235294117647E+0000  1.34588235294118E+0000
613  1.22941176470588E+0000  1.00941176470588E+0000  1.33294117647059E+0000
614  1.24235294117647E+0000  1.00941176470588E+0000  1.33294117647059E+0000
615  1.24235294117647E+0000  1.02235294117647E+0000  1.34588235294118E+0000
616  1.24235294117647E+0000  1.03529411764706E+0000  1.34588235294118E+0000
617  1.25529411764706E+0000  1.06117647058824E+0000  1.34588235294118E+0000
618  1.24235294117647E+0000  1.08705882352941E+0000  1.34588235294118E+0000
619  1.24235294117647E+0000  1.12588235294118E+0000  1.34588235294118E+0000
620  1.24235294117647E+0000  1.15176470588235E+0000  1.35882352941176E+0000
621  1.22941176470588E+0000  1.17764705882353E+0000  1.35882352941176E+0000
622  1.22941176470588E+0000  1.20352941176471E+0000  1.35882352941176E+0000
623  1.22941176470588E+0000  1.21647058823529E+0000  1.35882352941176E+0000
624  1.22941176470588E+0000  1.21647058823529E+0000  1.35882352941176E+0000
625  1.22941176470588E+0000  1.20352941176471E+0000  1.37176470588235E+0000
626  1.21647058823529E+0000  1.20352941176471E+0000  1.37176470588235E+0000
627  1.21647058823529E+0000  1.17764705882353E+0000  1.37176470588235E+0000
628  1.22941176470588E+0000  1.15176470588235E+0000  1.37176470588235E+0000
629  1.22941176470588E+0000  1.12588235294118E+0000  1.38470588235294E+0000
630  1.24235294117647E+0000  1.08705882352941E+0000  1.39764705882353E+0000
631  1.24235294117647E+0000  1.06117647058824E+0000  1.38470588235294E+0000
632  1.25529411764706E+0000  1.04823529411765E+0000  1.38470588235294E+0000
633  1.25529411764706E+0000  1.03529411764706E+0000  1.38470588235294E+0000
634  1.26823529411765E+0000  1.03529411764706E+0000  1.39764705882353E+0000
635  1.28117647058824E+0000  1.03529411764706E+0000  1.39764705882353E+0000
636  1.28117647058824E+0000  1.04823529411765E+0000  1.41058823529412E+0000
637  1.28117647058824E+0000  1.07411764705882E+0000  1.37176470588235E+0000
638  1.29411764705882E+0000  1.10000000000000E+0000  1.38470588235294E+0000
639  1.28117647058824E+0000  1.12588235294118E+0000  1.41058823529412E+0000
640  1.28117647058824E+0000  1.16470588235294E+0000  1.39764705882353E+0000
641  1.26823529411765E+0000  1.19058823529412E+0000  1.38470588235294E+0000
642  1.26823529411765E+0000  1.21647058823529E+0000  1.38470588235294E+0000
643  1.26823529411765E+0000  1.21647058823529E+0000  1.37176470588235E+0000
644  1.25529411764706E+0000  1.22941176470588E+0000  1.38470588235294E+0000
645  1.25529411764706E+0000  1.21647058823529E+0000  1.39764705882353E+0000
646  1.24235294117647E+0000  1.20352941176471E+0000  1.37176470588235E+0000
647  1.24235294117647E+0000  1.19058823529412E+0000  1.37176470588235E+0000
648  1.24235294117647E+0000  1.16470588235294E+0000  1.38470588235294E+0000
649  1.25529411764706E+0000  1.13882352941176E+0000  1.38470588235294E+0000
650  1.25529411764706E+0000  1.10000000000000E+0000  1.37176470588235E+0000
651  1.26823529411765E+0000  1.08705882352941E+0000  1.37176470588235E+0000
652  1.28117647058824E+0000  1.06117647058824E+0000  1.38470588235294E+0000
653  1.28117647058824E+0000  1.04823529411765E+0000  1.37176470588235E+0000
654  1.29411764705882E+0000  1.04823529411765E+0000  1.37176470588235E+0000
655  1.30705882352941E+0000  1.04823529411765E+0000  1.35882352941176E+0000
656  1.32000000000000E+0000  1.06117647058824E+0000  1.35882352941176E+0000
657  1.32000000000000E+0000  1.07411764705882E+0000  1.35882352941176E+0000
658  1.32000000000000E+0000  1.11294117647059E+0000  1.35882352941176E+0000
659  1.32000000000000E+0000  1.13882352941176E+0000  1.34588235294118E+0000
660  1.32000000000000E+0000  1.17764705882353E+0000  1.33294117647059E+0000
661  1.32000000000000E+0000  1.20352941176471E+0000  1.35882352941176E+0000
662  1.32000000000000E+0000  1.21647058823529E+0000  1.34588235294118E+0000
663  1.32000000000000E+0000  1.22941176470588E+0000  1.35882352941176E+0000
664  1.32000000000000E+0000  1.22941176470588E+0000  1.33294117647059E+0000
665  1.32000000000000E+0000  1.22941176470588E+0000  1.33294117647059E+0000
666  1.32000000000000E+0000  1.21647058823529E+0000  1.34588235294118E+0000
667  1.32000000000000E+0000  1.20352941176471E+0000  1.34588235294118E+0000
668  1.33294117647059E+0000  1.17764705882353E+0000  1.35882352941176E+0000
669  1.34588235294118E+0000  1.13882352941176E+0000  1.34588235294118E+0000
670  1.35882352941176E+0000  1.10000000000000E+0000  1.35882352941176E+0000
671  1.37176470588235E+0000  1.07411764705882E+0000  1.37176470588235E+0000
672  1.39764705882353E+0000  1.06117647058824E+0000  1.34588235294118E+0000
673  1.41058823529412E+0000  1.04823529411765E+0000  1.35882352941176E+0000
674  1.42352941176471E+0000  1.04823529411765E+0000  1.35882352941176E+0000
675  1.43647058823529E+0000  1.04823529411765E+0000  1.34588235294118E+0000
676  1.44941176470588E+0000  1.06117647058824E+0000  1.35882352941176E+0000
677  1.46235294117647E+0000  1.07411764705882E+0000  1.35882352941176E+0000
678  1.46235294117647E+0000  1.08705882352941E+0000  1.35882352941176E+0000
679  1.44941176470588E+0000  1.12588235294118E+0000  1.35882352941176E+0000
680  1.43647058823529E+0000  1.15176470588235E+0000  1.35882352941176E+0000
681  1.43647058823529E+0000  1.19058823529412E+0000  1.35882352941176E+0000
682  1.42352941176471E+0000  1.20352941176471E+0000  1.35882352941176E+0000
683  1.42352941176471E+0000  1.20352941176471E+0000  1.34588235294118E+0000
684  1.41058823529412E+0000  1.21647058823529E+0000  1.35882352941176E+0000
685  1.41058823529412E+0000  1.21647058823529E+0000  1.34588235294118E+0000
686  1.41058823529412E+0000  1.21647058823529E+0000  1.34588235294118E+0000
687  1.42352941176471E+0000  1.20352941176471E+0000  1.37176470588235E+0000
688  1.42352941176471E+0000  1.17764705882353E+0000  1.37176470588235E+0000
689  1.43647058823529E+0000  1.13882352941176E+0000  1.37176470588235E+0000
690  1.44941176470588E+0000  1.11294117647059E+0000  1.37176470588235E+0000
691  1.46235294117647E+0000  1.08705882352941E+0000  1.38470588235294E+0000
692  1.47529411764706E+0000  1.07411764705882E+0000  1.38470588235294E+0000
693  1.47529411764706E+0000  1.06117647058824E+0000  1.35882352941176E+0000
694  1.47529411764706E+0000  1.06117647058824E+0000  1.35882352941176E+0000
695  1.48823529411765E+0000  1.06117647058824E+0000  1.37176470588235E+0000
696  1.48823529411765E+0000  1.07411764705882E+0000  1.37176470588235E+0000
697  1.48823529411765E+0000  1.08705882352941E+0000  1.37176470588235E+0000
698  1.47529411764706E+0000  1.11294117647059E+0000  1.38470588235294E+0000
699  1.47529411764706E+0000  1.15176470588235E+0000  1.37176470588235E+0000
700  1.46235294117647E+0000  1.19058823529412E+0000  1.37176470588235E+0000
701  1.46235294117647E+0000  1.21647058823529E+0000  1.37176470588235E+0000
702  1.44941176470588E+0000  1.22941176470588E+0000  1.37176470588235E+0000
703  1.43647058823529E+0000  1.24235294117647E+0000  1.37176470588235E+0000
704  1.43647058823529E+0000  1.25529411764706E+0000  1.37176470588235E+0000
705  1.42352941176471E+0000  1.25529411764706E+0000  1.35882352941176E+0000
706  1.41058823529412E+0000  1.24235294117647E+0000  1.35882352941176E+0000
707  1.39764705882353E+0000  1.22941176470588E+0000  1.35882352941176E+0000
708  1.38470588235294E+0000  1.20352941176471E+0000  1.34588235294118E+0000
709  1.38470588235294E+0000  1.16470588235294E+0000  1.37176470588235E+0000
710  1.38470588235294E+0000  1.13882352941176E+0000  1.37176470588235E+0000
711  1.38470588235294E+0000  1.11294117647059E+0000  1.35882352941176E+0000
712  1.38470588235294E+0000  1.10000000000000E+0000  1.38470588235294E+0000
713  1.38470588235294E+0000  1.08705882352941E+0000  1.38470588235294E+0000
714  1.37176470588235E+0000  1.07411764705882E+0000  1.39764705882353E+0000
715  1.37176470588235E+0000  1.08705882352941E+0000  1.41058823529412E+0000
716  1.37176470588235E+0000  1.08705882352941E+0000  1.42352941176471E+0000
717  1.35882352941176E+0000  1.10000000000000E+0000  1.38470588235294E+0000
718  1.34588235294118E+0000  1.13882352941176E+0000  1.39764705882353E+0000
719  1.33294117647059E+0000  1.16470588235294E+0000  1.41058823529412E+0000
720  1.32000000000000E+0000  1.20352941176471E+0000  1.38470588235294E+0000
721  1.30705882352941E+0000  1.22941176470588E+0000  1.37176470588235E+0000
722  1.29411764705882E+0000  1.25529411764706E+0000  1.37176470588235E+0000
723  1.28117647058824E+0000  1.26823529411765E+0000  1.37176470588235E+0000
724  1.26823529411765E+0000  1.26823529411765E+0000  1.34588235294118E+0000
725  1.24235294117647E+0000  1.26823529411765E+0000  1.32000000000000E+0000
726  1.24235294117647E+0000  1.25529411764706E+0000  1.30705882352941E+0000
727  1.22941176470588E+0000  1.22941176470588E+0000  1.30705882352941E+0000
728  1.22941176470588E+0000  1.21647058823529E+0000  1.30705882352941E+0000
729  1.22941176470588E+0000  1.17764705882353E+0000  1.28117647058824E+0000
730  1.22941176470588E+0000  1.15176470588235E+0000  1.28117647058824E+0000
731  1.22941176470588E+0000  1.12588235294118E+0000  1.29411764705882E+0000
732  1.22941176470588E+0000  1.11294117647059E+0000  1.30705882352941E+0000
733  1.24235294117647E+0000  1.10000000000000E+0000  1.28117647058824E+0000
734  1.24235294117647E+0000  1.10000000000000E+0000  1.26823529411765E+0000
735  1.25529411764706E+0000  1.10000000000000E+0000  1.30705882352941E+0000
736  1.25529411764706E+0000  1.11294117647059E+0000  1.32000000000000E+0000
737  1.26823529411765E+0000  1.12588235294118E+0000  1.32000000000000E+0000
738  1.25529411764706E+0000  1.15176470588235E+0000  1.32000000000000E+0000
739  1.25529411764706E+0000  1.19058823529412E+0000  1.33294117647059E+0000
740  1.24235294117647E+0000  1.22941176470588E+0000  1.35882352941176E+0000
741  1.22941176470588E+0000  1.26823529411765E+0000  1.37176470588235E+0000
742  1.22941176470588E+0000  1.28117647058824E+0000  1.37176470588235E+0000
743  1.21647058823529E+0000  1.30705882352941E+0000  1.39764705882353E+0000
744  1.21647058823529E+0000  1.30705882352941E+0000  1.39764705882353E+0000
745  1.20352941176471E+0000  1.30705882352941E+0000  1.39764705882353E+0000
746  1.20352941176471E+0000  1.29411764705882E+0000  1.41058823529412E+0000
747  1.19058823529412E+0000  1.28117647058824E+0000  1.42352941176471E+0000
748  1.17764705882353E+0000  1.25529411764706E+0000  1.42352941176471E+0000
749  1.19058823529412E+0000  1.21647058823529E+0000  1.41058823529412E+0000
750  1.19058823529412E+0000  1.19058823529412E+0000  1.39764705882353E+0000
751  1.20352941176471E+0000  1.16470588235294E+0000  1.41058823529412E+0000
752  1.20352941176471E+0000  1.15176470588235E+0000  1.39764705882353E+0000
753  1.20352941176471E+0000  1.13882352941176E+0000  1.39764705882353E+0000
754  1.20352941176471E+0000  1.12588235294118E+0000  1.38470588235294E+0000
755  1.20352941176471E+0000  1.12588235294118E+0000  1.39764705882353E+0000
756  1.21647058823529E+0000  1.13882352941176E+0000  1.41058823529412E+0000
757  1.22941176470588E+0000  1.15176470588235E+0000  1.38470588235294E+0000
758  1.22941176470588E+0000  1.17764705882353E+0000  1.38470588235294E+0000
759  1.22941176470588E+0000  1.20352941176471E+0000  1.39764705882353E+0000
760  1.24235294117647E+0000  1.24235294117647E+0000  1.37176470588235E+0000
761  1.24235294117647E+0000  1.26823529411765E+0000  1.37176470588235E+0000
762  1.22941176470588E+0000  1.29411764705882E+0000  1.39764705882353E+0000
763  1.22941176470588E+0000  1.30705882352941E+0000  1.39764705882353E+0000
764  1.21647058823529E+0000  1.30705882352941E+0000  1.38470588235294E+0000
765  1.21647058823529E+0000  1.30705882352941E+0000  1.35882352941176E+0000
766  1.20352941176471E+0000  1.29411764705882E+0000  1.37176470588235E+0000
767  1.20352941176471E+0000  1.28117647058824E+0000  1.38470588235294E+0000
768  1.20352941176471E+0000  1.25529411764706E+0000  1.37176470588235E+0000
769  1.20352941176471E+0000  1.21647058823529E+0000  1.35882352941176E+0000
770  1.21647058823529E+0000  1.17764705882353E+0000  1.34588235294118E+0000
771  1.21647058823529E+0000  1.15176470588235E+0000  1.35882352941176E+0000
772  1.21647058823529E+0000  1.13882352941176E+0000  1.34588235294118E+0000
773  1.20352941176471E+0000  1.12588235294118E+0000  1.32000000000000E+0000
774  1.20352941176471E+0000  1.11294117647059E+0000  1.32000000000000E+0000
775  1.21647058823529E+0000  1.11294117647059E+0000  1.33294117647059E+0000
776  1.21647058823529E+0000  1.12588235294118E+0000  1.30705882352941E+0000
777  1.22941176470588E+0000  1.13882352941176E+0000  1.30705882352941E+0000
778  1.22941176470588E+0000  1.16470588235294E+0000  1.28117647058824E+0000
779  1.22941176470588E+0000  1.19058823529412E+0000  1.28117647058824E+0000
780  1.21647058823529E+0000  1.22941176470588E+0000  1.28117647058824E+0000
781  1.20352941176471E+0000  1.25529411764706E+0000  1.26823529411765E+0000
782  1.20352941176471E+0000  1.26823529411765E+0000  1.28117647058824E+0000
783  1.19058823529412E+0000  1.28117647058824E+0000  1.26823529411765E+0000
784  1.19058823529412E+0000  1.28117647058824E+0000  1.26823529411765E+0000
785  1.17764705882353E+0000  1.28117647058824E+0000  1.28117647058824E+0000
786  1.16470588235294E+0000  1.28117647058824E+0000  1.26823529411765E+0000
787  1.16470588235294E+0000  1.25529411764706E+0000  1.28117647058824E+0000
788  1.17764705882353E+0000  1.22941176470588E+0000  1.29411764705882E+0000
789  1.17764705882353E+0000  1.20352941176471E+0000  1.28117647058824E+0000
790  1.17764705882353E+0000  1.16470588235294E+0000  1.28117647058824E+0000
791  1.19058823529412E+0000  1.12588235294118E+0000  1.30705882352941E+0000
792  1.19058823529412E+0000  1.11294117647059E+0000  1.32000000000000E+0000
793  1.19058823529412E+0000  1.10000000000000E+0000  1.32000000000000E+0000
794  1.20352941176471E+0000  1.10000000000000E+0000  1.30705882352941E+0000
795  1.20352941176471E+0000  1.10000000000000E+0000  1.30705882352941E+0000
796  1.21647058823529E+0000  1.11294117647059E+0000  1.34588235294118E+0000
797  1.21647058823529E+0000  1.11294117647059E+0000  1.34588235294118E+0000
798  1.20352941176471E+0000  1.13882352941176E+0000  1.34588235294118E+0000
799  1.19058823529412E+0000  1.16470588235294E+0000  1.35882352941176E+0000
800  1.19058823529412E+0000  1.20352941176471E+0000  1.38470588235294E+0000
801  1.17764705882353E+0000  1.22941176470588E+0000  1.41058823529412E+0000
802  1.16470588235294E+0000  1.25529411764706E+0000  1.43647058823529E+0000
803  1.15176470588235E+0000  1.26823529411765E+0000  1.44941176470588E+0000
804  1.15176470588235E+0000  1.26823529411765E+0000  1.48823529411765E+0000
805  1.15176470588235E+0000  1.26823529411765E+0000  1.52705882352941E+0000
806  1.15176470588235E+0000  1.26823529411765E+0000  1.55294117647059E+0000
807  1.16470588235294E+0000  1.24235294117647E+0000  1.57882352941176E+0000
808  1.19058823529412E+0000  1.21647058823529E+0000  1.61764705882353E+0000
809  1.22941176470588E+0000  1.19058823529412E+0000  1.65647058823529E+0000
810  1.29411764705882E+0000  1.15176470588235E+0000  1.68235294117647E+0000
811  1.34588235294118E+0000  1.12588235294118E+0000  1.69529411764706E+0000
812  1.41058823529412E+0000  1.10000000000000E+0000  1.72117647058824E+0000
813  1.47529411764706E+0000  1.08705882352941E+0000  1.73411764705882E+0000
814  1.54000000000000E+0000  1.08705882352941E+0000  1.74705882352941E+0000
815  1.61764705882353E+0000  1.08705882352941E+0000  1.76000000000000E+0000
816  1.70823529411765E+0000  1.08705882352941E+0000  1.76000000000000E+0000
817  1.79882352941176E+0000  1.10000000000000E+0000  1.74705882352941E+0000
818  1.90235294117647E+0000  1.12588235294118E+0000  1.69529411764706E+0000
819  2.00588235294118E+0000  1.15176470588235E+0000  1.65647058823529E+0000
820  2.10941176470588E+0000  1.19058823529412E+0000  1.60470588235294E+0000
821  2.23882352941176E+0000  1.21647058823529E+0000  1.51411764705882E+0000
822  2.35529411764706E+0000  1.22941176470588E+0000  1.42352941176471E+0000
823  2.48470588235294E+0000  1.24235294117647E+0000  1.32000000000000E+0000
824  2.61411764705882E+0000  1.25529411764706E+0000  1.22941176470588E+0000
825  2.73058823529412E+0000  1.24235294117647E+0000  1.10000000000000E+0000
826  2.83411764705882E+0000  1.22941176470588E+0000  1.00941176470588E+0000
827  2.93764705882353E+0000  1.21647058823529E+0000  9.18823529411765E-0001
828  3.01529411764706E+0000  1.20352941176471E+0000  8.41176470588235E-0001
829  3.08000000000000E+0000  1.16470588235294E+0000  7.63529411764706E-0001
830  3.10588235294118E+0000  1.12588235294118E+0000  7.37647058823529E-0001
831  3.09294117647059E+0000  1.10000000000000E+0000  7.37647058823529E-0001
832  3.05411764705882E+0000  1.08705882352941E+0000  7.24705882352941E-0001
833  2.96352941176471E+0000  1.07411764705882E+0000  7.24705882352941E-0001
834  2.83411764705882E+0000  1.07411764705882E+0000  7.11764705882353E-0001
835  2.67882352941176E+0000  1.07411764705882E+0000  7.50588235294118E-0001
836  2.51058823529412E+0000  1.08705882352941E+0000  8.54117647058824E-0001
837  2.32941176470588E+0000  1.10000000000000E+0000  9.31764705882353E-0001
838  2.12235294117647E+0000  1.11294117647059E+0000  9.83529411764706E-0001
839  1.92823529411765E+0000  1.15176470588235E+0000  1.10000000000000E+0000
840  1.72117647058824E+0000  1.17764705882353E+0000  1.20352941176471E+0000
841  1.52705882352941E+0000  1.21647058823529E+0000  1.33294117647059E+0000
842  1.34588235294118E+0000  1.24235294117647E+0000  1.41058823529412E+0000
843  1.17764705882353E+0000  1.25529411764706E+0000  1.47529411764706E+0000
844  1.03529411764706E+0000  1.26823529411765E+0000  1.54000000000000E+0000
845  8.92941176470588E-0001  1.26823529411765E+0000  1.57882352941176E+0000
846  7.63529411764706E-0001  1.25529411764706E+0000  1.59176470588235E+0000
847  6.47058823529412E-0001  1.24235294117647E+0000  1.59176470588235E+0000
848  5.56470588235294E-0001  1.21647058823529E+0000  1.59176470588235E+0000
849  4.91764705882353E-0001  1.19058823529412E+0000  1.56588235294118E+0000
850  4.40000000000000E-0001  1.15176470588235E+0000  1.54000000000000E+0000
851  4.01176470588235E-0001  1.12588235294118E+0000  1.54000000000000E+0000
852  3.75294117647059E-0001  1.10000000000000E+0000  1.48823529411765E+0000
853  3.49411764705882E-0001  1.10000000000000E+0000  1.52705882352941E+0000
854  3.49411764705882E-0001  1.08705882352941E+0000  1.56588235294118E+0000
855  3.49411764705882E-0001  1.10000000000000E+0000  1.56588235294118E+0000
856  3.62352941176471E-0001  1.10000000000000E+0000  1.54000000000000E+0000
857  3.62352941176471E-0001  1.12588235294118E+0000  1.60470588235294E+0000
858  3.75294117647059E-0001  1.15176470588235E+0000  1.73411764705882E+0000
859  3.88235294117647E-0001  1.19058823529412E+0000  2.00588235294118E+0000
860  3.88235294117647E-0001  1.22941176470588E+0000  2.34235294117647E+0000
861  3.88235294117647E-0001  1.25529411764706E+0000  2.49764705882353E+0000
862  3.88235294117647E-0001  1.28117647058824E+0000  2.42000000000000E+0000
863  3.88235294117647E-0001  1.30705882352941E+0000  2.20000000000000E+0000
864  3.75294117647059E-0001  1.30705882352941E+0000  1.83764705882353E+0000
865  3.62352941176471E-0001  1.30705882352941E+0000  1.48823529411765E+0000
866  3.62352941176471E-0001  1.29411764705882E+0000  1.30705882352941E+0000
867  3.62352941176471E-0001  1.29411764705882E+0000  1.26823529411765E+0000
868  3.75294117647059E-0001  1.26823529411765E+0000  1.28117647058824E+0000
869  4.01176470588235E-0001  1.22941176470588E+0000  1.29411764705882E+0000
870  4.27058823529412E-0001  1.19058823529412E+0000  1.39764705882353E+0000
871  4.78823529411765E-0001  1.16470588235294E+0000  1.42352941176471E+0000
872  5.17647058823529E-0001  1.13882352941176E+0000  1.33294117647059E+0000
873  5.82352941176471E-0001  1.12588235294118E+0000  1.30705882352941E+0000
874  6.47058823529412E-0001  1.12588235294118E+0000  1.15176470588235E+0000
875  7.11764705882353E-0001  1.11294117647059E+0000  1.06117647058824E+0000
876  7.76470588235294E-0001  1.11294117647059E+0000  9.96470588235294E-0001
877  8.54117647058824E-0001  1.12588235294118E+0000  8.02352941176471E-0001
878  9.05882352941176E-0001  1.13882352941176E+0000  5.82352941176471E-0001
879  9.57647058823529E-0001  1.16470588235294E+0000  4.40000000000000E-0001
880  1.00941176470588E+0000  1.20352941176471E+0000  2.97647058823529E-0001
881  1.04823529411765E+0000  1.22941176470588E+0000  2.07058823529412E-0001
882  1.08705882352941E+0000  1.24235294117647E+0000  2.58823529411765E-0001
883  1.11294117647059E+0000  1.25529411764706E+0000  3.10588235294118E-0001
884  1.12588235294118E+0000  1.25529411764706E+0000  4.14117647058824E-0001
885  1.13882352941176E+0000  1.25529411764706E+0000  6.47058823529412E-0001
886  1.12588235294118E+0000  1.24235294117647E+0000  8.80000000000000E-0001
887  1.12588235294118E+0000  1.22941176470588E+0000  1.06117647058824E+0000
888  1.12588235294118E+0000  1.20352941176471E+0000  1.24235294117647E+0000
889  1.13882352941176E+0000  1.16470588235294E+0000  1.38470588235294E+0000
890  1.15176470588235E+0000  1.13882352941176E+0000  1.51411764705882E+0000
891  1.16470588235294E+0000  1.10000000000000E+0000  1.70823529411765E+0000
892  1.17764705882353E+0000  1.08705882352941E+0000  1.88941176470588E+0000
893  1.19058823529412E+0000  1.08705882352941E+0000  2.05764705882353E+0000
894  1.20352941176471E+0000  1.10000000000000E+0000  2.20000000000000E+0000
895  1.21647058823529E+0000  1.12588235294118E+0000  2.23882352941176E+0000
896  1.22941176470588E+0000  1.15176470588235E+0000  2.21294117647059E+0000
897  1.24235294117647E+0000  1.19058823529412E+0000  2.12235294117647E+0000
898  1.25529411764706E+0000  1.24235294117647E+0000  1.96705882352941E+0000
899  1.25529411764706E+0000  1.30705882352941E+0000  1.79882352941176E+0000
900  1.25529411764706E+0000  1.37176470588235E+0000  1.65647058823529E+0000
901  1.25529411764706E+0000  1.43647058823529E+0000  1.52705882352941E+0000
902  1.25529411764706E+0000  1.48823529411765E+0000  1.38470588235294E+0000
903  1.24235294117647E+0000  1.52705882352941E+0000  1.25529411764706E+0000
904  1.22941176470588E+0000  1.55294117647059E+0000  1.17764705882353E+0000
905  1.21647058823529E+0000  1.57882352941176E+0000  1.13882352941176E+0000
906  1.19058823529412E+0000  1.57882352941176E+0000  1.15176470588235E+0000
907  1.17764705882353E+0000  1.57882352941176E+0000  1.19058823529412E+0000
908  1.17764705882353E+0000  1.56588235294118E+0000  1.22941176470588E+0000
909  1.17764705882353E+0000  1.54000000000000E+0000  1.26823529411765E+0000
910  1.19058823529412E+0000  1.51411764705882E+0000  1.26823529411765E+0000
911  1.20352941176471E+0000  1.48823529411765E+0000  1.20352941176471E+0000
912  1.21647058823529E+0000  1.46235294117647E+0000  1.12588235294118E+0000
913  1.22941176470588E+0000  1.44941176470588E+0000  1.06117647058824E+0000
914  1.24235294117647E+0000  1.43647058823529E+0000  9.83529411764706E-0001
915  1.25529411764706E+0000  1.43647058823529E+0000  9.57647058823529E-0001
916  1.26823529411765E+0000  1.43647058823529E+0000  9.96470588235294E-0001
917  1.26823529411765E+0000  1.44941176470588E+0000  1.08705882352941E+0000
918  1.28117647058824E+0000  1.47529411764706E+0000  1.20352941176471E+0000
919  1.29411764705882E+0000  1.51411764705882E+0000  1.37176470588235E+0000
920  1.29411764705882E+0000  1.55294117647059E+0000  1.54000000000000E+0000
921  1.29411764705882E+0000  1.60470588235294E+0000  1.69529411764706E+0000
922  1.30705882352941E+0000  1.64352941176471E+0000  1.83764705882353E+0000
923  1.30705882352941E+0000  1.68235294117647E+0000  1.95411764705882E+0000
924  1.30705882352941E+0000  1.72117647058824E+0000  1.99294117647059E+0000
925  1.30705882352941E+0000  1.77294117647059E+0000  2.03176470588235E+0000
926  1.30705882352941E+0000  1.82470588235294E+0000  2.04470588235294E+0000
927  1.29411764705882E+0000  1.87647058823529E+0000  1.99294117647059E+0000
928  1.29411764705882E+0000  1.91529411764706E+0000  1.95411764705882E+0000
929  1.30705882352941E+0000  1.96705882352941E+0000  1.91529411764706E+0000
930  1.30705882352941E+0000  1.99294117647059E+0000  1.85058823529412E+0000
931  1.32000000000000E+0000  2.03176470588235E+0000  1.77294117647059E+0000
932  1.32000000000000E+0000  2.07058823529412E+0000  1.72117647058824E+0000
933  1.33294117647059E+0000  2.10941176470588E+0000  1.64352941176471E+0000
934  1.33294117647059E+0000  2.16117647058824E+0000  1.57882352941176E+0000
935  1.34588235294118E+0000  2.21294117647059E+0000  1.50117647058824E+0000
936  1.35882352941176E+0000  2.27764705882353E+0000  1.43647058823529E+0000
937  1.35882352941176E+0000  2.32941176470588E+0000  1.38470588235294E+0000
938  1.35882352941176E+0000  2.39411764705882E+0000  1.32000000000000E+0000
939  1.35882352941176E+0000  2.45882352941176E+0000  1.26823529411765E+0000
940  1.35882352941176E+0000  2.51058823529412E+0000  1.24235294117647E+0000
941  1.35882352941176E+0000  2.54941176470588E+0000  1.21647058823529E+0000
942  1.35882352941176E+0000  2.58823529411765E+0000  1.17764705882353E+0000
943  1.35882352941176E+0000  2.60117647058824E+0000  1.16470588235294E+0000
944  1.35882352941176E+0000  2.61411764705882E+0000  1.15176470588235E+0000
945  1.34588235294118E+0000  2.61411764705882E+0000  1.08705882352941E+0000
946  1.33294117647059E+0000  2.61411764705882E+0000  1.06117647058824E+0000
947  1.33294117647059E+0000  2.60117647058824E+0000  1.00941176470588E+0000
948  1.32000000000000E+0000  2.57529411764706E+0000  9.31764705882353E-0001
949  1.32000000000000E+0000  2.53647058823529E+0000  8.92941176470588E-0001
950  1.33294117647059E+0000  2.48470588235294E+0000  8.54117647058824E-0001
951  1.34588235294118E+0000  2.43294117647059E+0000  8.02352941176471E-0001
952  1.34588235294118E+0000  2.40705882352941E+0000  7.89411764705882E-0001
953  1.35882352941176E+0000  2.36823529411765E+0000  7.76470588235294E-0001
954  1.37176470588235E+0000  2.35529411764706E+0000  7.76470588235294E-0001
955  1.39764705882353E+0000  2.32941176470588E+0000  8.41176470588235E-0001
956  1.39764705882353E+0000  2.32941176470588E+0000  8.80000000000000E-0001
957  1.41058823529412E+0000  2.32941176470588E+0000  9.44705882352941E-0001
958  1.41058823529412E+0000  2.34235294117647E+0000  1.04823529411765E+0000
959  1.41058823529412E+0000  2.36823529411765E+0000  1.08705882352941E+0000
960  1.39764705882353E+0000  2.38117647058824E+0000  1.19058823529412E+0000
961  1.38470588235294E+0000  2.40705882352941E+0000  1.25529411764706E+0000
962  1.38470588235294E+0000  2.42000000000000E+0000  1.29411764705882E+0000
963  1.38470588235294E+0000  2.42000000000000E+0000  1.35882352941176E+0000
964  1.38470588235294E+0000  2.40705882352941E+0000  1.38470588235294E+0000
965  1.37176470588235E+0000  2.39411764705882E+0000  1.41058823529412E+0000
966  1.37176470588235E+0000  2.36823529411765E+0000  1.42352941176471E+0000
967  1.37176470588235E+0000  2.34235294117647E+0000  1.41058823529412E+0000
968  1.37176470588235E+0000  2.30352941176471E+0000  1.44941176470588E+0000
969  1.37176470588235E+0000  2.25176470588235E+0000  1.43647058823529E+0000
970  1.38470588235294E+0000  2.20000000000000E+0000  1.43647058823529E+0000
971  1.39764705882353E+0000  2.14823529411765E+0000  1.46235294117647E+0000
972  1.39764705882353E+0000  2.10941176470588E+0000  1.44941176470588E+0000
973  1.41058823529412E+0000  2.07058823529412E+0000  1.46235294117647E+0000
974  1.42352941176471E+0000  2.05764705882353E+0000  1.46235294117647E+0000
975  1.43647058823529E+0000  2.04470588235294E+0000  1.46235294117647E+0000
976  1.44941176470588E+0000  2.03176470588235E+0000  1.50117647058824E+0000
977  1.44941176470588E+0000  2.04470588235294E+0000  1.50117647058824E+0000
978  1.44941176470588E+0000  2.04470588235294E+0000  1.51411764705882E+0000
979  1.44941176470588E+0000  2.07058823529412E+0000  1.55294117647059E+0000
980  1.43647058823529E+0000  2.08352941176471E+0000  1.56588235294118E+0000
981  1.43647058823529E+0000  2.09647058823529E+0000  1.59176470588235E+0000
982  1.42352941176471E+0000  2.09647058823529E+0000  1.61764705882353E+0000
983  1.42352941176471E+0000  2.08352941176471E+0000  1.61764705882353E+0000
984  1.42352941176471E+0000  2.07058823529412E+0000  1.63058823529412E+0000
985  1.42352941176471E+0000  2.04470588235294E+0000  1.61764705882353E+0000
986  1.42352941176471E+0000  2.00588235294118E+0000  1.59176470588235E+0000
987  1.42352941176471E+0000  1.98000000000000E+0000  1.59176470588235E+0000
988  1.42352941176471E+0000  1.92823529411765E+0000  1.57882352941176E+0000
989  1.41058823529412E+0000  1.87647058823529E+0000  1.55294117647059E+0000
990  1.42352941176471E+0000  1.79882352941176E+0000  1.51411764705882E+0000
991  1.42352941176471E+0000  1.74705882352941E+0000  1.51411764705882E+0000
992  1.42352941176471E+0000  1.68235294117647E+0000  1.50117647058824E+0000
993  1.43647058823529E+0000  1.63058823529412E+0000  1.46235294117647E+0000
994  1.44941176470588E+0000  1.59176470588235E+0000  1.44941176470588E+0000
995  1.46235294117647E+0000  1.56588235294118E+0000  1.47529411764706E+0000
996  1.47529411764706E+0000  1.54000000000000E+0000  1.44941176470588E+0000
997  1.48823529411765E+0000  1.51411764705882E+0000  1.44941176470588E+0000
998  1.50117647058824E+0000  1.51411764705882E+0000  1.46235294117647E+0000
999  1.50117647058824E+0000  1.51411764705882E+0000  1.42352941176471E+0000
1000  1.50117647058824E+0000  1.51411764705882E+0000  1.43647058823529E+0000
1001  1.50117647058824E+0000  1.52705882352941E+0000  1.43647058823529E+0000
1002  1.50117647058824E+0000  1.51411764705882E+0000  1.41058823529412E+0000
1003  1.50117647058824E+0000  1.50117647058824E+0000  1.41058823529412E+0000
1004  1.51411764705882E+0000  1.48823529411765E+0000  1.38470588235294E+0000
1005  1.51411764705882E+0000  1.46235294117647E+0000  1.35882352941176E+0000
1006  1.51411764705882E+0000  1.43647058823529E+0000  1.35882352941176E+0000
1007  1.51411764705882E+0000  1.39764705882353E+0000  1.32000000000000E+0000
1008  1.52705882352941E+0000  1.35882352941176E+0000  1.29411764705882E+0000
1009  1.52705882352941E+0000  1.29411764705882E+0000  1.28117647058824E+0000
1010  1.52705882352941E+0000  1.24235294117647E+0000  1.24235294117647E+0000
1011  1.54000000000000E+0000  1.19058823529412E+0000  1.21647058823529E+0000
1012  1.54000000000000E+0000  1.15176470588235E+0000  1.20352941176471E+0000
1013  1.55294117647059E+0000  1.11294117647059E+0000  1.20352941176471E+0000
1014  1.56588235294118E+0000  1.10000000000000E+0000  1.20352941176471E+0000
1015  1.57882352941176E+0000  1.07411764705882E+0000  1.20352941176471E+0000
1016  1.59176470588235E+0000  1.06117647058824E+0000  1.21647058823529E+0000
1017  1.60470588235294E+0000  1.06117647058824E+0000  1.22941176470588E+0000
1018  1.61764705882353E+0000  1.06117647058824E+0000  1.24235294117647E+0000
1019  1.60470588235294E+0000  1.07411764705882E+0000  1.25529411764706E+0000
1020  1.60470588235294E+0000  1.08705882352941E+0000  1.25529411764706E+0000
1021  1.59176470588235E+0000  1.11294117647059E+0000  1.25529411764706E+0000
1022  1.59176470588235E+0000  1.12588235294118E+0000  1.26823529411765E+0000
1023  1.59176470588235E+0000  1.12588235294118E+0000  1.28117647058824E+0000
1024  1.59176470588235E+0000  1.11294117647059E+0000  1.26823529411765E+0000
1025  1.59176470588235E+0000  1.11294117647059E+0000  1.26823529411765E+0000
1026  1.59176470588235E+0000  1.08705882352941E+0000  1.26823529411765E+0000
1027  1.59176470588235E+0000  1.06117647058824E+0000  1.26823529411765E+0000
1028  1.60470588235294E+0000  1.03529411764706E+0000  1.26823529411765E+0000
1029  1.60470588235294E+0000  9.83529411764706E-0001  1.25529411764706E+0000
1030  1.61764705882353E+0000  9.44705882352941E-0001  1.25529411764706E+0000
1031  1.61764705882353E+0000  8.92941176470588E-0001  1.26823529411765E+0000
1032  1.63058823529412E+0000  8.67058823529412E-0001  1.28117647058824E+0000
1033  1.63058823529412E+0000  8.41176470588235E-0001  1.28117647058824E+0000
1034  1.64352941176471E+0000  8.28235294117647E-0001  1.29411764705882E+0000
1035  1.65647058823529E+0000  8.15294117647059E-0001  1.30705882352941E+0000
1036  1.66941176470588E+0000  8.15294117647059E-0001  1.30705882352941E+0000
1037  1.68235294117647E+0000  8.15294117647059E-0001  1.33294117647059E+0000
1038  1.68235294117647E+0000  8.28235294117647E-0001  1.34588235294118E+0000
1039  1.69529411764706E+0000  8.41176470588235E-0001  1.35882352941176E+0000
1040  1.68235294117647E+0000  8.67058823529412E-0001  1.37176470588235E+0000
1041  1.68235294117647E+0000  8.92941176470588E-0001  1.38470588235294E+0000
1042  1.68235294117647E+0000  9.18823529411765E-0001  1.39764705882353E+0000
1043  1.68235294117647E+0000  9.31764705882353E-0001  1.39764705882353E+0000
1044  1.68235294117647E+0000  9.31764705882353E-0001  1.42352941176471E+0000
1045  1.68235294117647E+0000  9.31764705882353E-0001  1.43647058823529E+0000
1046  1.68235294117647E+0000  9.31764705882353E-0001  1.43647058823529E+0000
1047  1.68235294117647E+0000  9.05882352941176E-0001  1.44941176470588E+0000
1048  1.68235294117647E+0000  8.92941176470588E-0001  1.44941176470588E+0000
1049  1.68235294117647E+0000  8.67058823529412E-0001  1.44941176470588E+0000
1050  1.68235294117647E+0000  8.28235294117647E-0001  1.44941176470588E+0000
1051  1.68235294117647E+0000  8.02352941176471E-0001  1.44941176470588E+0000
1052  1.68235294117647E+0000  7.76470588235294E-0001  1.44941176470588E+0000
1053  1.68235294117647E+0000  7.63529411764706E-0001  1.44941176470588E+0000
1054  1.69529411764706E+0000  7.63529411764706E-0001  1.44941176470588E+0000
1055  1.69529411764706E+0000  7.50588235294118E-0001  1.43647058823529E+0000
1056  1.70823529411765E+0000  7.63529411764706E-0001  1.43647058823529E+0000
1057  1.72117647058824E+0000  7.76470588235294E-0001  1.46235294117647E+0000
1058  1.72117647058824E+0000  8.02352941176471E-0001  1.43647058823529E+0000
1059  1.72117647058824E+0000  8.28235294117647E-0001  1.44941176470588E+0000
1060  1.70823529411765E+0000  8.67058823529412E-0001  1.44941176470588E+0000
1061  1.69529411764706E+0000  9.05882352941176E-0001  1.44941176470588E+0000
1062  1.68235294117647E+0000  9.31764705882353E-0001  1.46235294117647E+0000
1063  1.68235294117647E+0000  9.57647058823529E-0001  1.43647058823529E+0000
1064  1.66941176470588E+0000  9.70588235294118E-0001  1.43647058823529E+0000
1065  1.65647058823529E+0000  9.70588235294118E-0001  1.42352941176471E+0000
1066  1.65647058823529E+0000  9.70588235294118E-0001  1.41058823529412E+0000
1067  1.65647058823529E+0000  9.70588235294118E-0001  1.39764705882353E+0000
1068  1.65647058823529E+0000  9.57647058823529E-0001  1.38470588235294E+0000
1069  1.65647058823529E+0000  9.44705882352941E-0001  1.37176470588235E+0000
1070  1.66941176470588E+0000  9.05882352941176E-0001  1.37176470588235E+0000
1071  1.66941176470588E+0000  8.80000000000000E-0001  1.34588235294118E+0000
1072  1.66941176470588E+0000  8.67058823529412E-0001  1.33294117647059E+0000
1073  1.66941176470588E+0000  8.54117647058824E-0001  1.34588235294118E+0000
1074  1.66941176470588E+0000  8.67058823529412E-0001  1.33294117647059E+0000
1075  1.66941176470588E+0000  8.67058823529412E-0001  1.30705882352941E+0000
1076  1.68235294117647E+0000  8.80000000000000E-0001  1.33294117647059E+0000
1077  1.68235294117647E+0000  8.92941176470588E-0001  1.32000000000000E+0000
1078  1.68235294117647E+0000  9.18823529411765E-0001  1.30705882352941E+0000
1079  1.68235294117647E+0000  9.57647058823529E-0001  1.34588235294118E+0000
1080  1.66941176470588E+0000  9.96470588235294E-0001  1.32000000000000E+0000
1081  1.65647058823529E+0000  1.03529411764706E+0000  1.32000000000000E+0000
1082  1.64352941176471E+0000  1.06117647058824E+0000  1.34588235294118E+0000
1083  1.63058823529412E+0000  1.08705882352941E+0000  1.30705882352941E+0000
1084  1.61764705882353E+0000  1.10000000000000E+0000  1.30705882352941E+0000
1085  1.60470588235294E+0000  1.12588235294118E+0000  1.32000000000000E+0000
1086  1.59176470588235E+0000  1.12588235294118E+0000  1.29411764705882E+0000
1087  1.59176470588235E+0000  1.12588235294118E+0000  1.29411764705882E+0000
1088  1.59176470588235E+0000  1.11294117647059E+0000  1.30705882352941E+0000
1089  1.59176470588235E+0000  1.08705882352941E+0000  1.29411764705882E+0000
1090  1.57882352941176E+0000  1.06117647058824E+0000  1.30705882352941E+0000
1091  1.57882352941176E+0000  1.03529411764706E+0000  1.30705882352941E+0000
1092  1.57882352941176E+0000  1.02235294117647E+0000  1.30705882352941E+0000
1093  1.57882352941176E+0000  1.00941176470588E+0000  1.29411764705882E+0000
1094  1.56588235294118E+0000  1.00941176470588E+0000  1.30705882352941E+0000
1095  1.56588235294118E+0000  1.00941176470588E+0000  1.30705882352941E+0000
1096  1.57882352941176E+0000  1.02235294117647E+0000  1.30705882352941E+0000
1097  1.57882352941176E+0000  1.04823529411765E+0000  1.30705882352941E+0000
1098  1.56588235294118E+0000  1.06117647058824E+0000  1.33294117647059E+0000
1099  1.56588235294118E+0000  1.10000000000000E+0000  1.33294117647059E+0000
1100  1.55294117647059E+0000  1.13882352941176E+0000  1.34588235294118E+0000
1101  1.54000000000000E+0000  1.19058823529412E+0000  1.35882352941176E+0000
1102  1.52705882352941E+0000  1.21647058823529E+0000  1.34588235294118E+0000
1103  1.51411764705882E+0000  1.24235294117647E+0000  1.35882352941176E+0000
1104  1.50117647058824E+0000  1.25529411764706E+0000  1.38470588235294E+0000
1105  1.48823529411765E+0000  1.26823529411765E+0000  1.37176470588235E+0000
1106  1.47529411764706E+0000  1.26823529411765E+0000  1.37176470588235E+0000
1107  1.46235294117647E+0000  1.25529411764706E+0000  1.38470588235294E+0000
1108  1.46235294117647E+0000  1.24235294117647E+0000  1.39764705882353E+0000
1109  1.44941176470588E+0000  1.21647058823529E+0000  1.38470588235294E+0000
1110  1.44941176470588E+0000  1.19058823529412E+0000  1.38470588235294E+0000
1111  1.44941176470588E+0000  1.16470588235294E+0000  1.39764705882353E+0000
1112  1.43647058823529E+0000  1.13882352941176E+0000  1.38470588235294E+0000
1113  1.43647058823529E+0000  1.12588235294118E+0000  1.38470588235294E+0000
1114  1.43647058823529E+0000  1.12588235294118E+0000  1.39764705882353E+0000
1115  1.43647058823529E+0000  1.12588235294118E+0000  1.39764705882353E+0000
1116  1.44941176470588E+0000  1.12588235294118E+0000  1.42352941176471E+0000
1117  1.44941176470588E+0000  1.13882352941176E+0000  1.42352941176471E+0000
1118  1.44941176470588E+0000  1.15176470588235E+0000  1.43647058823529E+0000
1119  1.46235294117647E+0000  1.17764705882353E+0000  1.44941176470588E+0000
1120  1.44941176470588E+0000  1.21647058823529E+0000  1.46235294117647E+0000
1121  1.43647058823529E+0000  1.24235294117647E+0000  1.46235294117647E+0000
1122  1.43647058823529E+0000  1.26823529411765E+0000  1.47529411764706E+0000
1123  1.42352941176471E+0000  1.28117647058824E+0000  1.47529411764706E+0000
1124  1.41058823529412E+0000  1.29411764705882E+0000  1.47529411764706E+0000
1125  1.41058823529412E+0000  1.29411764705882E+0000  1.48823529411765E+0000
1126  1.38470588235294E+0000  1.28117647058824E+0000  1.48823529411765E+0000
1127  1.38470588235294E+0000  1.26823529411765E+0000  1.47529411764706E+0000
1128  1.38470588235294E+0000  1.24235294117647E+0000  1.47529411764706E+0000
1129  1.38470588235294E+0000  1.20352941176471E+0000  1.47529411764706E+0000
1130  1.37176470588235E+0000  1.16470588235294E+0000  1.44941176470588E+0000
1131  1.37176470588235E+0000  1.12588235294118E+0000  1.42352941176471E+0000
1132  1.38470588235294E+0000  1.08705882352941E+0000  1.41058823529412E+0000
1133  1.37176470588235E+0000  1.06117647058824E+0000  1.38470588235294E+0000
1134  1.37176470588235E+0000  1.03529411764706E+0000  1.37176470588235E+0000
1135  1.37176470588235E+0000  1.03529411764706E+0000  1.34588235294118E+0000
1136  1.37176470588235E+0000  1.02235294117647E+0000  1.32000000000000E+0000
1137  1.37176470588235E+0000  1.02235294117647E+0000  1.30705882352941E+0000
1138  1.38470588235294E+0000  1.02235294117647E+0000  1.26823529411765E+0000
1139  1.37176470588235E+0000  1.02235294117647E+0000  1.24235294117647E+0000
1140  1.37176470588235E+0000  1.04823529411765E+0000  1.21647058823529E+0000
1141  1.35882352941176E+0000  1.06117647058824E+0000  1.21647058823529E+0000
1142  1.35882352941176E+0000  1.07411764705882E+0000  1.24235294117647E+0000
1143  1.34588235294118E+0000  1.07411764705882E+0000  1.24235294117647E+0000
1144  1.33294117647059E+0000  1.06117647058824E+0000  1.22941176470588E+0000
1145  1.33294117647059E+0000  1.04823529411765E+0000  1.26823529411765E+0000
1146  1.32000000000000E+0000  1.02235294117647E+0000  1.24235294117647E+0000
1147  1.30705882352941E+0000  9.83529411764706E-0001  1.13882352941176E+0000
1148  1.30705882352941E+0000  9.44705882352941E-0001  9.83529411764706E-0001
1149  1.32000000000000E+0000  8.92941176470588E-0001  8.02352941176471E-0001
1150  1.32000000000000E+0000  8.41176470588235E-0001  6.60000000000000E-0001
1151  1.32000000000000E+0000  7.89411764705882E-0001  6.98823529411765E-0001
1152  1.32000000000000E+0000  7.37647058823529E-0001  8.41176470588235E-0001
1153  1.32000000000000E+0000  6.98823529411765E-0001  9.31764705882353E-0001
1154  1.32000000000000E+0000  6.72941176470588E-0001  9.31764705882353E-0001
1155  1.32000000000000E+0000  6.47058823529412E-0001  9.31764705882353E-0001
1156  1.32000000000000E+0000  6.34117647058824E-0001  9.44705882352941E-0001
1157  1.32000000000000E+0000  6.34117647058824E-0001  9.70588235294118E-0001
1158  1.32000000000000E+0000  6.47058823529412E-0001  1.08705882352941E+0000
1159  1.32000000000000E+0000  6.72941176470588E-0001  1.26823529411765E+0000
1160  1.32000000000000E+0000  6.98823529411765E-0001  1.44941176470588E+0000
1161  1.32000000000000E+0000  7.24705882352941E-0001  1.66941176470588E+0000
1162  1.30705882352941E+0000  7.50588235294118E-0001  1.85058823529412E+0000
1163  1.29411764705882E+0000  7.63529411764706E-0001  1.99294117647059E+0000
1164  1.29411764705882E+0000  7.76470588235294E-0001  2.08352941176471E+0000
1165  1.28117647058824E+0000  7.89411764705882E-0001  2.14823529411765E+0000
1166  1.26823529411765E+0000  7.89411764705882E-0001  2.16117647058824E+0000
1167  1.26823529411765E+0000  7.76470588235294E-0001  2.16117647058824E+0000
1168  1.25529411764706E+0000  7.63529411764706E-0001  2.16117647058824E+0000
1169  1.26823529411765E+0000  7.24705882352941E-0001  2.14823529411765E+0000
1170  1.26823529411765E+0000  6.98823529411765E-0001  2.12235294117647E+0000
1171  1.28117647058824E+0000  6.60000000000000E-0001  2.10941176470588E+0000
1172  1.29411764705882E+0000  6.60000000000000E-0001  2.05764705882353E+0000
1173  1.29411764705882E+0000  6.47058823529412E-0001  2.01882352941176E+0000
1174  1.29411764705882E+0000  6.72941176470588E-0001  1.96705882352941E+0000
1175  1.30705882352941E+0000  6.98823529411765E-0001  1.88941176470588E+0000
1176  1.30705882352941E+0000  7.37647058823529E-0001  1.81176470588235E+0000
1177  1.30705882352941E+0000  7.89411764705882E-0001  1.69529411764706E+0000
1178  1.30705882352941E+0000  8.54117647058824E-0001  1.56588235294118E+0000
1179  1.30705882352941E+0000  9.18823529411765E-0001  1.42352941176471E+0000
1180  1.30705882352941E+0000  9.96470588235294E-0001  1.26823529411765E+0000
1181  1.30705882352941E+0000  1.07411764705882E+0000  1.13882352941176E+0000
1182  1.29411764705882E+0000  1.15176470588235E+0000  1.03529411764706E+0000
1183  1.29411764705882E+0000  1.21647058823529E+0000  9.44705882352941E-0001
1184  1.28117647058824E+0000  1.26823529411765E+0000  8.80000000000000E-0001
1185  1.28117647058824E+0000  1.32000000000000E+0000  8.28235294117647E-0001
1186  1.26823529411765E+0000  1.35882352941176E+0000  8.15294117647059E-0001
1187  1.26823529411765E+0000  1.39764705882353E+0000  8.28235294117647E-0001
1188  1.26823529411765E+0000  1.41058823529412E+0000  8.28235294117647E-0001
1189  1.26823529411765E+0000  1.41058823529412E+0000  8.54117647058824E-0001
1190  1.28117647058824E+0000  1.41058823529412E+0000  8.92941176470588E-0001
1191  1.28117647058824E+0000  1.38470588235294E+0000  9.05882352941176E-0001
1192  1.29411764705882E+0000  1.35882352941176E+0000  9.18823529411765E-0001
1193  1.30705882352941E+0000  1.34588235294118E+0000  9.70588235294118E-0001
1194  1.30705882352941E+0000  1.33294117647059E+0000  9.70588235294118E-0001
1195  1.30705882352941E+0000  1.33294117647059E+0000  1.00941176470588E+0000
1196  1.30705882352941E+0000  1.33294117647059E+0000  1.02235294117647E+0000
1197  1.30705882352941E+0000  1.35882352941176E+0000  1.02235294117647E+0000
1198  1.30705882352941E+0000  1.37176470588235E+0000  1.03529411764706E+0000
1199  1.30705882352941E+0000  1.39764705882353E+0000  1.06117647058824E+0000
1200  1.30705882352941E+0000  1.42352941176471E+0000  1.07411764705882E+0000
1201  1.30705882352941E+0000  1.44941176470588E+0000  1.10000000000000E+0000
1202  1.30705882352941E+0000  1.46235294117647E+0000  1.15176470588235E+0000
1203  1.29411764705882E+0000  1.47529411764706E+0000  1.20352941176471E+0000
1204  1.29411764705882E+0000  1.47529411764706E+0000  1.24235294117647E+0000
1205  1.28117647058824E+0000  1.47529411764706E+0000  1.29411764705882E+0000
1206  1.26823529411765E+0000  1.47529411764706E+0000  1.34588235294118E+0000
1207  1.25529411764706E+0000  1.46235294117647E+0000  1.39764705882353E+0000
1208  1.24235294117647E+0000  1.44941176470588E+0000  1.44941176470588E+0000
1209  1.24235294117647E+0000  1.43647058823529E+0000  1.51411764705882E+0000
1210  1.24235294117647E+0000  1.42352941176471E+0000  1.56588235294118E+0000
1211  1.25529411764706E+0000  1.41058823529412E+0000  1.57882352941176E+0000
1212  1.25529411764706E+0000  1.39764705882353E+0000  1.63058823529412E+0000
1213  1.26823529411765E+0000  1.39764705882353E+0000  1.64352941176471E+0000
1214  1.26823529411765E+0000  1.39764705882353E+0000  1.64352941176471E+0000
1215  1.26823529411765E+0000  1.41058823529412E+0000  1.65647058823529E+0000
1216  1.26823529411765E+0000  1.41058823529412E+0000  1.61764705882353E+0000
1217  1.28117647058824E+0000  1.42352941176471E+0000  1.60470588235294E+0000
1218  1.28117647058824E+0000  1.42352941176471E+0000  1.59176470588235E+0000
1219  1.28117647058824E+0000  1.44941176470588E+0000  1.54000000000000E+0000
1220  1.28117647058824E+0000  1.46235294117647E+0000  1.52705882352941E+0000
1221  1.28117647058824E+0000  1.48823529411765E+0000  1.50117647058824E+0000
1222  1.26823529411765E+0000  1.51411764705882E+0000  1.48823529411765E+0000
1223  1.26823529411765E+0000  1.54000000000000E+0000  1.48823529411765E+0000
1224  1.26823529411765E+0000  1.55294117647059E+0000  1.46235294117647E+0000
1225  1.26823529411765E+0000  1.56588235294118E+0000  1.46235294117647E+0000
1226  1.25529411764706E+0000  1.57882352941176E+0000  1.47529411764706E+0000
1227  1.24235294117647E+0000  1.57882352941176E+0000  1.46235294117647E+0000
1228  1.22941176470588E+0000  1.57882352941176E+0000  1.47529411764706E+0000
1229  1.24235294117647E+0000  1.56588235294118E+0000  1.47529411764706E+0000
1230  1.24235294117647E+0000  1.54000000000000E+0000  1.47529411764706E+0000
1231  1.25529411764706E+0000  1.51411764705882E+0000  1.47529411764706E+0000
1232  1.26823529411765E+0000  1.48823529411765E+0000  1.47529411764706E+0000
1233  1.28117647058824E+0000  1.46235294117647E+0000  1.46235294117647E+0000
1234  1.28117647058824E+0000  1.44941176470588E+0000  1.44941176470588E+0000
1235  1.29411764705882E+0000  1.43647058823529E+0000  1.43647058823529E+0000
1236  1.29411764705882E+0000  1.42352941176471E+0000  1.42352941176471E+0000
1237  1.30705882352941E+0000  1.41058823529412E+0000  1.37176470588235E+0000
1238  1.30705882352941E+0000  1.41058823529412E+0000  1.35882352941176E+0000
1239  1.29411764705882E+0000  1.41058823529412E+0000  1.33294117647059E+0000
1240  1.29411764705882E+0000  1.42352941176471E+0000  1.30705882352941E+0000
1241  1.28117647058824E+0000  1.44941176470588E+0000  1.28117647058824E+0000
1242  1.28117647058824E+0000  1.44941176470588E+0000  1.26823529411765E+0000
1243  1.26823529411765E+0000  1.46235294117647E+0000  1.25529411764706E+0000
1244  1.26823529411765E+0000  1.44941176470588E+0000  1.25529411764706E+0000
1245  1.25529411764706E+0000  1.43647058823529E+0000  1.25529411764706E+0000
1246  1.25529411764706E+0000  1.42352941176471E+0000  1.26823529411765E+0000
1247  1.24235294117647E+0000  1.41058823529412E+0000  1.26823529411765E+0000
1248  1.22941176470588E+0000  1.38470588235294E+0000  1.28117647058824E+0000
1249  1.22941176470588E+0000  1.34588235294118E+0000  1.30705882352941E+0000
1250  1.24235294117647E+0000  1.29411764705882E+0000  1.30705882352941E+0000
1251  1.24235294117647E+0000  1.25529411764706E+0000  1.33294117647059E+0000
1252  1.25529411764706E+0000  1.21647058823529E+0000  1.33294117647059E+0000
1253  1.26823529411765E+0000  1.19058823529412E+0000  1.34588235294118E+0000
1254  1.26823529411765E+0000  1.17764705882353E+0000  1.35882352941176E+0000
1255  1.28117647058824E+0000  1.16470588235294E+0000  1.34588235294118E+0000
1256  1.28117647058824E+0000  1.16470588235294E+0000  1.33294117647059E+0000
1257  1.29411764705882E+0000  1.16470588235294E+0000  1.32000000000000E+0000
1258  1.28117647058824E+0000  1.17764705882353E+0000  1.30705882352941E+0000
1259  1.29411764705882E+0000  1.20352941176471E+0000  1.30705882352941E+0000
1260  1.28117647058824E+0000  1.22941176470588E+0000  1.29411764705882E+0000
1261  1.28117647058824E+0000  1.26823529411765E+0000  1.28117647058824E+0000
1262  1.28117647058824E+0000  1.29411764705882E+0000  1.29411764705882E+0000
1263  1.28117647058824E+0000  1.30705882352941E+0000  1.28117647058824E+0000
1264  1.28117647058824E+0000  1.32000000000000E+0000  1.30705882352941E+0000
1265  1.26823529411765E+0000  1.32000000000000E+0000  1.30705882352941E+0000
1266  1.26823529411765E+0000  1.32000000000000E+0000  1.29411764705882E+0000
1267  1.25529411764706E+0000  1.30705882352941E+0000  1.33294117647059E+0000
1268  1.25529411764706E+0000  1.28117647058824E+0000  1.34588235294118E+0000
1269  1.24235294117647E+0000  1.24235294117647E+0000  1.34588235294118E+0000
1270  1.24235294117647E+0000  1.20352941176471E+0000  1.37176470588235E+0000
1271  1.24235294117647E+0000  1.16470588235294E+0000  1.37176470588235E+0000
1272  1.25529411764706E+0000  1.13882352941176E+0000  1.38470588235294E+0000
1273  1.25529411764706E+0000  1.11294117647059E+0000  1.37176470588235E+0000
1274  1.26823529411765E+0000  1.10000000000000E+0000  1.37176470588235E+0000
1275  1.26823529411765E+0000  1.08705882352941E+0000  1.39764705882353E+0000
1276  1.28117647058824E+0000  1.08705882352941E+0000  1.38470588235294E+0000
1277  1.29411764705882E+0000  1.08705882352941E+0000  1.37176470588235E+0000
1278  1.29411764705882E+0000  1.10000000000000E+0000  1.37176470588235E+0000
1279  1.29411764705882E+0000  1.11294117647059E+0000  1.35882352941176E+0000
1280  1.28117647058824E+0000  1.12588235294118E+0000  1.34588235294118E+0000
1281  1.26823529411765E+0000  1.16470588235294E+0000  1.33294117647059E+0000
1282  1.26823529411765E+0000  1.17764705882353E+0000  1.34588235294118E+0000
1283  1.26823529411765E+0000  1.19058823529412E+0000  1.33294117647059E+0000
1284  1.26823529411765E+0000  1.19058823529412E+0000  1.32000000000000E+0000
1285  1.26823529411765E+0000  1.19058823529412E+0000  1.34588235294118E+0000
1286  1.26823529411765E+0000  1.16470588235294E+0000  1.34588235294118E+0000
1287  1.25529411764706E+0000  1.15176470588235E+0000  1.34588235294118E+0000
1288  1.25529411764706E+0000  1.12588235294118E+0000  1.37176470588235E+0000
1289  1.25529411764706E+0000  1.08705882352941E+0000  1.35882352941176E+0000
1290  1.25529411764706E+0000  1.04823529411765E+0000  1.37176470588235E+0000
1291  1.26823529411765E+0000  1.00941176470588E+0000  1.38470588235294E+0000
1292  1.26823529411765E+0000  9.70588235294118E-0001  1.39764705882353E+0000
1293  1.26823529411765E+0000  9.44705882352941E-0001  1.37176470588235E+0000
1294  1.28117647058824E+0000  9.31764705882353E-0001  1.37176470588235E+0000
1295  1.28117647058824E+0000  9.31764705882353E-0001  1.41058823529412E+0000
1296  1.29411764705882E+0000  9.31764705882353E-0001  1.39764705882353E+0000
1297  1.29411764705882E+0000  9.44705882352941E-0001  1.38470588235294E+0000
1298  1.29411764705882E+0000  9.57647058823529E-0001  1.39764705882353E+0000
1299  1.29411764705882E+0000  9.70588235294118E-0001  1.38470588235294E+0000
1300  1.29411764705882E+0000  1.00941176470588E+0000  1.37176470588235E+0000
1301  1.28117647058824E+0000  1.03529411764706E+0000  1.37176470588235E+0000
1302  1.28117647058824E+0000  1.06117647058824E+0000  1.38470588235294E+0000
1303  1.26823529411765E+0000  1.08705882352941E+0000  1.37176470588235E+0000
1304  1.26823529411765E+0000  1.10000000000000E+0000  1.37176470588235E+0000
1305  1.26823529411765E+0000  1.08705882352941E+0000  1.37176470588235E+0000
1306  1.26823529411765E+0000  1.08705882352941E+0000  1.37176470588235E+0000
1307  1.25529411764706E+0000  1.07411764705882E+0000  1.38470588235294E+0000
1308  1.25529411764706E+0000  1.06117647058824E+0000  1.39764705882353E+0000
1309  1.25529411764706E+0000  1.02235294117647E+0000  1.39764705882353E+0000
1310  1.24235294117647E+0000  9.83529411764706E-0001  1.41058823529412E+0000
1311  1.24235294117647E+0000  9.57647058823529E-0001  1.41058823529412E+0000
1312  1.24235294117647E+0000  9.18823529411765E-0001  1.42352941176471E+0000
1313  1.25529411764706E+0000  9.05882352941176E-0001  1.43647058823529E+0000
1314  1.25529411764706E+0000  8.92941176470588E-0001  1.41058823529412E+0000
1315  1.25529411764706E+0000  8.92941176470588E-0001  1.42352941176471E+0000
1316  1.26823529411765E+0000  8.92941176470588E-0001  1.41058823529412E+0000
1317  1.28117647058824E+0000  9.05882352941176E-0001  1.39764705882353E+0000
1318  1.28117647058824E+0000  9.18823529411765E-0001  1.38470588235294E+0000
1319  1.26823529411765E+0000  9.44705882352941E-0001  1.38470588235294E+0000
1320  1.26823529411765E+0000  9.70588235294118E-0001  1.37176470588235E+0000
1321  1.26823529411765E+0000  1.00941176470588E+0000  1.37176470588235E+0000
1322  1.25529411764706E+0000  1.03529411764706E+0000  1.37176470588235E+0000
1323  1.25529411764706E+0000  1.04823529411765E+0000  1.37176470588235E+0000
1324  1.26823529411765E+0000  1.07411764705882E+0000  1.35882352941176E+0000
1325  1.25529411764706E+0000  1.07411764705882E+0000  1.35882352941176E+0000
1326  1.25529411764706E+0000  1.07411764705882E+0000  1.34588235294118E+0000
1327  1.25529411764706E+0000  1.06117647058824E+0000  1.34588235294118E+0000
1328  1.25529411764706E+0000  1.04823529411765E+0000  1.34588235294118E+0000
1329  1.24235294117647E+0000  1.02235294117647E+0000  1.33294117647059E+0000
1330  1.24235294117647E+0000  9.96470588235294E-0001  1.33294117647059E+0000
1331  1.25529411764706E+0000  9.57647058823529E-0001  1.34588235294118E+0000
1332  1.25529411764706E+0000  9.44705882352941E-0001  1.34588235294118E+0000
1333  1.25529411764706E+0000  9.18823529411765E-0001  1.33294117647059E+0000
1334  1.26823529411765E+0000  9.05882352941176E-0001  1.33294117647059E+0000
1335  1.26823529411765E+0000  9.18823529411765E-0001  1.33294117647059E+0000
1336  1.28117647058824E+0000  9.18823529411765E-0001  1.32000000000000E+0000
1337  1.29411764705882E+0000  9.31764705882353E-0001  1.33294117647059E+0000
1338  1.29411764705882E+0000  9.44705882352941E-0001  1.33294117647059E+0000
1339  1.29411764705882E+0000  9.70588235294118E-0001  1.32000000000000E+0000
1340  1.28117647058824E+0000  1.00941176470588E+0000  1.32000000000000E+0000
1341  1.28117647058824E+0000  1.03529411764706E+0000  1.32000000000000E+0000
1342  1.26823529411765E+0000  1.07411764705882E+0000  1.32000000000000E+0000
1343  1.25529411764706E+0000  1.08705882352941E+0000  1.32000000000000E+0000
1344  1.25529411764706E+0000  1.11294117647059E+0000  1.32000000000000E+0000
1345  1.24235294117647E+0000  1.11294117647059E+0000  1.33294117647059E+0000
1346  1.24235294117647E+0000  1.11294117647059E+0000  1.33294117647059E+0000
1347  1.22941176470588E+0000  1.10000000000000E+0000  1.32000000000000E+0000
1348  1.22941176470588E+0000  1.08705882352941E+0000  1.33294117647059E+0000
1349  1.22941176470588E+0000  1.06117647058824E+0000  1.33294117647059E+0000
1350  1.22941176470588E+0000  1.03529411764706E+0000  1.33294117647059E+0000
1351  1.22941176470588E+0000  9.96470588235294E-0001  1.34588235294118E+0000
1352  1.22941176470588E+0000  9.57647058823529E-0001  1.35882352941176E+0000
1353  1.24235294117647E+0000  9.44705882352941E-0001  1.35882352941176E+0000
1354  1.24235294117647E+0000  9.44705882352941E-0001  1.37176470588235E+0000
1355  1.24235294117647E+0000  9.31764705882353E-0001  1.38470588235294E+0000
1356  1.25529411764706E+0000  9.31764705882353E-0001  1.38470588235294E+0000
1357  1.26823529411765E+0000  9.44705882352941E-0001  1.39764705882353E+0000
1358  1.26823529411765E+0000  9.57647058823529E-0001  1.39764705882353E+0000
1359  1.26823529411765E+0000  9.83529411764706E-0001  1.39764705882353E+0000
1360  1.26823529411765E+0000  1.00941176470588E+0000  1.41058823529412E+0000
1361  1.25529411764706E+0000  1.04823529411765E+0000  1.41058823529412E+0000
1362  1.25529411764706E+0000  1.07411764705882E+0000  1.42352941176471E+0000
1363  1.24235294117647E+0000  1.10000000000000E+0000  1.42352941176471E+0000
1364  1.24235294117647E+0000  1.11294117647059E+0000  1.41058823529412E+0000
1365  1.22941176470588E+0000  1.11294117647059E+0000  1.41058823529412E+0000
1366  1.22941176470588E+0000  1.11294117647059E+0000  1.41058823529412E+0000
1367  1.22941176470588E+0000  1.10000000000000E+0000  1.41058823529412E+0000
1368  1.22941176470588E+0000  1.08705882352941E+0000  1.39764705882353E+0000
1369  1.22941176470588E+0000  1.06117647058824E+0000  1.39764705882353E+0000
1370  1.24235294117647E+0000  1.03529411764706E+0000  1.38470588235294E+0000
1371  1.24235294117647E+0000  1.00941176470588E+0000  1.37176470588235E+0000
1372  1.25529411764706E+0000  9.83529411764706E-0001  1.37176470588235E+0000
1373  1.25529411764706E+0000  9.57647058823529E-0001  1.37176470588235E+0000
1374  1.25529411764706E+0000  9.57647058823529E-0001  1.35882352941176E+0000
1375  1.25529411764706E+0000  9.57647058823529E-0001  1.34588235294118E+0000
1376  1.26823529411765E+0000  9.57647058823529E-0001  1.35882352941176E+0000
1377  1.26823529411765E+0000  9.70588235294118E-0001  1.34588235294118E+0000
1378  1.28117647058824E+0000  9.96470588235294E-0001  1.34588235294118E+0000
1379  1.26823529411765E+0000  1.02235294117647E+0000  1.35882352941176E+0000
1380  1.26823529411765E+0000  1.04823529411765E+0000  1.34588235294118E+0000
1381  1.26823529411765E+0000  1.08705882352941E+0000  1.35882352941176E+0000
1382  1.25529411764706E+0000  1.11294117647059E+0000  1.34588235294118E+0000
1383  1.25529411764706E+0000  1.13882352941176E+0000  1.34588235294118E+0000
1384  1.25529411764706E+0000  1.16470588235294E+0000  1.35882352941176E+0000
1385  1.24235294117647E+0000  1.16470588235294E+0000  1.34588235294118E+0000
1386  1.24235294117647E+0000  1.16470588235294E+0000  1.34588235294118E+0000
1387  1.24235294117647E+0000  1.16470588235294E+0000  1.34588235294118E+0000
1388  1.24235294117647E+0000  1.15176470588235E+0000  1.34588235294118E+0000
1389  1.24235294117647E+0000  1.12588235294118E+0000  1.35882352941176E+0000
1390  1.22941176470588E+0000  1.08705882352941E+0000  1.33294117647059E+0000
1391  1.22941176470588E+0000  1.06117647058824E+0000  1.33294117647059E+0000
1392  1.22941176470588E+0000  1.03529411764706E+0000  1.33294117647059E+0000
1393  1.22941176470588E+0000  1.00941176470588E+0000  1.33294117647059E+0000
1394  1.22941176470588E+0000  1.00941176470588E+0000  1.33294117647059E+0000
1395  1.22941176470588E+0000  1.00941176470588E+0000  1.34588235294118E+0000
1396  1.24235294117647E+0000  1.00941176470588E+0000  1.33294117647059E+0000
1397  1.25529411764706E+0000  1.02235294117647E+0000  1.33294117647059E+0000
1398  1.26823529411765E+0000  1.02235294117647E+0000  1.34588235294118E+0000
1399  1.28117647058824E+0000  1.04823529411765E+0000  1.33294117647059E+0000
1400  1.28117647058824E+0000  1.08705882352941E+0000  1.33294117647059E+0000
1401  1.28117647058824E+0000  1.12588235294118E+0000  1.34588235294118E+0000
1402  1.26823529411765E+0000  1.15176470588235E+0000  1.33294117647059E+0000
1403  1.26823529411765E+0000  1.17764705882353E+0000  1.33294117647059E+0000
1404  1.25529411764706E+0000  1.19058823529412E+0000  1.34588235294118E+0000
1405  1.25529411764706E+0000  1.20352941176471E+0000  1.34588235294118E+0000
1406  1.24235294117647E+0000  1.20352941176471E+0000  1.33294117647059E+0000
1407  1.24235294117647E+0000  1.19058823529412E+0000  1.34588235294118E+0000
1408  1.22941176470588E+0000  1.17764705882353E+0000  1.34588235294118E+0000
1409  1.24235294117647E+0000  1.16470588235294E+0000  1.34588235294118E+0000
1410  1.24235294117647E+0000  1.13882352941176E+0000  1.35882352941176E+0000
1411  1.25529411764706E+0000  1.10000000000000E+0000  1.35882352941176E+0000
1412  1.25529411764706E+0000  1.07411764705882E+0000  1.35882352941176E+0000
1413  1.25529411764706E+0000  1.06117647058824E+0000  1.35882352941176E+0000
1414  1.26823529411765E+0000  1.04823529411765E+0000  1.35882352941176E+0000
1415  1.28117647058824E+0000  1.03529411764706E+0000  1.37176470588235E+0000
1416  1.28117647058824E+0000  1.03529411764706E+0000  1.37176470588235E+0000
1417  1.29411764705882E+0000  1.04823529411765E+0000  1.38470588235294E+0000
1418  1.30705882352941E+0000  1.06117647058824E+0000  1.38470588235294E+0000
1419  1.32000000000000E+0000  1.08705882352941E+0000  1.38470588235294E+0000
1420  1.32000000000000E+0000  1.11294117647059E+0000  1.39764705882353E+0000
1421  1.32000000000000E+0000  1.15176470588235E+0000  1.39764705882353E+0000
1422  1.30705882352941E+0000  1.17764705882353E+0000  1.39764705882353E+0000
1423  1.29411764705882E+0000  1.20352941176471E+0000  1.39764705882353E+0000
1424  1.29411764705882E+0000  1.21647058823529E+0000  1.38470588235294E+0000
1425  1.28117647058824E+0000  1.22941176470588E+0000  1.39764705882353E+0000
1426  1.28117647058824E+0000  1.21647058823529E+0000  1.41058823529412E+0000
1427  1.28117647058824E+0000  1.21647058823529E+0000  1.39764705882353E+0000
1428  1.29411764705882E+0000  1.20352941176471E+0000  1.38470588235294E+0000
1429  1.30705882352941E+0000  1.17764705882353E+0000  1.39764705882353E+0000
1430  1.32000000000000E+0000  1.13882352941176E+0000  1.39764705882353E+0000
1431  1.33294117647059E+0000  1.11294117647059E+0000  1.38470588235294E+0000
1432  1.34588235294118E+0000  1.07411764705882E+0000  1.37176470588235E+0000
1433  1.34588235294118E+0000  1.06117647058824E+0000  1.38470588235294E+0000
1434  1.34588235294118E+0000  1.04823529411765E+0000  1.37176470588235E+0000
1435  1.35882352941176E+0000  1.03529411764706E+0000  1.35882352941176E+0000
1436  1.37176470588235E+0000  1.03529411764706E+0000  1.37176470588235E+0000
1437  1.38470588235294E+0000  1.04823529411765E+0000  1.35882352941176E+0000
1438  1.39764705882353E+0000  1.06117647058824E+0000  1.35882352941176E+0000
1439  1.39764705882353E+0000  1.07411764705882E+0000  1.35882352941176E+0000
1440  1.41058823529412E+0000  1.11294117647059E+0000  1.35882352941176E+0000
1441  1.41058823529412E+0000  1.13882352941176E+0000  1.35882352941176E+0000
1442  1.41058823529412E+0000  1.16470588235294E+0000  1.35882352941176E+0000
1443  1.41058823529412E+0000  1.19058823529412E+0000  1.35882352941176E+0000
1444  1.41058823529412E+0000  1.20352941176471E+0000  1.35882352941176E+0000
1445  1.39764705882353E+0000  1.21647058823529E+0000  1.34588235294118E+0000
1446  1.39764705882353E+0000  1.21647058823529E+0000  1.37176470588235E+0000
1447  1.38470588235294E+0000  1.20352941176471E+0000  1.35882352941176E+0000
1448  1.38470588235294E+0000  1.19058823529412E+0000  1.34588235294118E+0000
1449  1.38470588235294E+0000  1.16470588235294E+0000  1.35882352941176E+0000
1450  1.39764705882353E+0000  1.13882352941176E+0000  1.34588235294118E+0000
1451  1.41058823529412E+0000  1.10000000000000E+0000  1.34588235294118E+0000
1452  1.42352941176471E+0000  1.07411764705882E+0000  1.34588235294118E+0000
1453  1.42352941176471E+0000  1.04823529411765E+0000  1.33294117647059E+0000
1454  1.42352941176471E+0000  1.03529411764706E+0000  1.34588235294118E+0000
1455  1.43647058823529E+0000  1.03529411764706E+0000  1.34588235294118E+0000
1456  1.43647058823529E+0000  1.03529411764706E+0000  1.32000000000000E+0000
1457  1.44941176470588E+0000  1.03529411764706E+0000  1.35882352941176E+0000
1458  1.44941176470588E+0000  1.04823529411765E+0000  1.34588235294118E+0000
1459  1.46235294117647E+0000  1.07411764705882E+0000  1.34588235294118E+0000
1460  1.46235294117647E+0000  1.10000000000000E+0000  1.35882352941176E+0000
1461  1.44941176470588E+0000  1.13882352941176E+0000  1.35882352941176E+0000
1462  1.44941176470588E+0000  1.16470588235294E+0000  1.37176470588235E+0000
1463  1.43647058823529E+0000  1.19058823529412E+0000  1.38470588235294E+0000
1464  1.43647058823529E+0000  1.20352941176471E+0000  1.37176470588235E+0000
1465  1.42352941176471E+0000  1.20352941176471E+0000  1.37176470588235E+0000
1466  1.41058823529412E+0000  1.20352941176471E+0000  1.38470588235294E+0000
1467  1.39764705882353E+0000  1.20352941176471E+0000  1.38470588235294E+0000
1468  1.39764705882353E+0000  1.19058823529412E+0000  1.38470588235294E+0000
1469  1.38470588235294E+0000  1.16470588235294E+0000  1.37176470588235E+0000
1470  1.39764705882353E+0000  1.13882352941176E+0000  1.38470588235294E+0000
1471  1.39764705882353E+0000  1.10000000000000E+0000  1.37176470588235E+0000
1472  1.41058823529412E+0000  1.07411764705882E+0000  1.38470588235294E+0000
1473  1.41058823529412E+0000  1.04823529411765E+0000  1.37176470588235E+0000
1474  1.39764705882353E+0000  1.04823529411765E+0000  1.37176470588235E+0000
1475  1.39764705882353E+0000  1.03529411764706E+0000  1.35882352941176E+0000
1476  1.38470588235294E+0000  1.03529411764706E+0000  1.35882352941176E+0000
1477  1.38470588235294E+0000  1.04823529411765E+0000  1.34588235294118E+0000
1478  1.37176470588235E+0000  1.06117647058824E+0000  1.35882352941176E+0000
1479  1.37176470588235E+0000  1.08705882352941E+0000  1.35882352941176E+0000
1480  1.35882352941176E+0000  1.11294117647059E+0000  1.35882352941176E+0000
1481  1.35882352941176E+0000  1.13882352941176E+0000  1.34588235294118E+0000
1482  1.34588235294118E+0000  1.17764705882353E+0000  1.37176470588235E+0000
1483  1.33294117647059E+0000  1.20352941176471E+0000  1.35882352941176E+0000
1484  1.32000000000000E+0000  1.21647058823529E+0000  1.35882352941176E+0000
1485  1.30705882352941E+0000  1.22941176470588E+0000  1.35882352941176E+0000
1486  1.28117647058824E+0000  1.22941176470588E+0000  1.35882352941176E+0000
1487  1.26823529411765E+0000  1.22941176470588E+0000  1.34588235294118E+0000
1488  1.25529411764706E+0000  1.21647058823529E+0000  1.35882352941176E+0000
1489  1.24235294117647E+0000  1.19058823529412E+0000  1.34588235294118E+0000
1490  1.22941176470588E+0000  1.16470588235294E+0000  1.34588235294118E+0000
1491  1.22941176470588E+0000  1.12588235294118E+0000  1.35882352941176E+0000
1492  1.22941176470588E+0000  1.10000000000000E+0000  1.35882352941176E+0000
1493  1.24235294117647E+0000  1.07411764705882E+0000  1.35882352941176E+0000
1494  1.22941176470588E+0000  1.07411764705882E+0000  1.37176470588235E+0000
1495  1.22941176470588E+0000  1.06117647058824E+0000  1.35882352941176E+0000
1496  1.22941176470588E+0000  1.06117647058824E+0000  1.35882352941176E+0000
1497  1.24235294117647E+0000  1.07411764705882E+0000  1.34588235294118E+0000
1498  1.24235294117647E+0000  1.08705882352941E+0000  1.34588235294118E+0000
1499  1.24235294117647E+0000  1.10000000000000E+0000  1.34588235294118E+0000
1500  1.22941176470588E+0000  1.13882352941176E+0000  1.34588235294118E+0000
1501  1.22941176470588E+0000  1.16470588235294E+0000  1.34588235294118E+0000
1502  1.22941176470588E+0000  1.20352941176471E+0000  1.34588235294118E+0000
1503  1.22941176470588E+0000  1.22941176470588E+0000  1.34588235294118E+0000
1504  1.21647058823529E+0000  1.24235294117647E+0000  1.34588235294118E+0000
1505  1.21647058823529E+0000  1.25529411764706E+0000  1.35882352941176E+0000
1506  1.20352941176471E+0000  1.25529411764706E+0000  1.35882352941176E+0000
1507  1.19058823529412E+0000  1.24235294117647E+0000  1.35882352941176E+0000
1508  1.17764705882353E+0000  1.22941176470588E+0000  1.35882352941176E+0000
1509  1.17764705882353E+0000  1.20352941176471E+0000  1.35882352941176E+0000
1510  1.17764705882353E+0000  1.17764705882353E+0000  1.37176470588235E+0000
1511  1.19058823529412E+0000  1.13882352941176E+0000  1.37176470588235E+0000
1512  1.20352941176471E+0000  1.11294117647059E+0000  1.37176470588235E+0000
1513  1.21647058823529E+0000  1.08705882352941E+0000  1.37176470588235E+0000
1514  1.21647058823529E+0000  1.07411764705882E+0000  1.37176470588235E+0000
1515  1.21647058823529E+0000  1.07411764705882E+0000  1.35882352941176E+0000
1516  1.22941176470588E+0000  1.07411764705882E+0000  1.38470588235294E+0000
1517  1.22941176470588E+0000  1.07411764705882E+0000  1.37176470588235E+0000
1518  1.22941176470588E+0000  1.08705882352941E+0000  1.37176470588235E+0000
1519  1.21647058823529E+0000  1.10000000000000E+0000  1.38470588235294E+0000
1520  1.21647058823529E+0000  1.12588235294118E+0000  1.35882352941176E+0000
1521  1.21647058823529E+0000  1.16470588235294E+0000  1.37176470588235E+0000
1522  1.21647058823529E+0000  1.19058823529412E+0000  1.37176470588235E+0000
1523  1.21647058823529E+0000  1.21647058823529E+0000  1.35882352941176E+0000
1524  1.20352941176471E+0000  1.22941176470588E+0000  1.37176470588235E+0000
1525  1.20352941176471E+0000  1.22941176470588E+0000  1.37176470588235E+0000
1526  1.19058823529412E+0000  1.22941176470588E+0000  1.37176470588235E+0000
1527  1.17764705882353E+0000  1.22941176470588E+0000  1.38470588235294E+0000
1528  1.16470588235294E+0000  1.20352941176471E+0000  1.37176470588235E+0000
1529  1.16470588235294E+0000  1.19058823529412E+0000  1.38470588235294E+0000
1530  1.16470588235294E+0000  1.15176470588235E+0000  1.39764705882353E+0000
1531  1.16470588235294E+0000  1.11294117647059E+0000  1.38470588235294E+0000
1532  1.17764705882353E+0000  1.08705882352941E+0000  1.38470588235294E+0000
1533  1.19058823529412E+0000  1.06117647058824E+0000  1.38470588235294E+0000
1534  1.19058823529412E+0000  1.04823529411765E+0000  1.38470588235294E+0000
1535  1.19058823529412E+0000  1.04823529411765E+0000  1.39764705882353E+0000
1536  1.19058823529412E+0000  1.04823529411765E+0000  1.38470588235294E+0000
1537  1.19058823529412E+0000  1.04823529411765E+0000  1.38470588235294E+0000
1538  1.19058823529412E+0000  1.06117647058824E+0000  1.37176470588235E+0000
1539  1.19058823529412E+0000  1.07411764705882E+0000  1.35882352941176E+0000
1540  1.19058823529412E+0000  1.11294117647059E+0000  1.34588235294118E+0000
1541  1.17764705882353E+0000  1.13882352941176E+0000  1.32000000000000E+0000
1542  1.17764705882353E+0000  1.17764705882353E+0000  1.30705882352941E+0000
1543  1.19058823529412E+0000  1.20352941176471E+0000  1.29411764705882E+0000
1544  1.19058823529412E+0000  1.21647058823529E+0000  1.28117647058824E+0000
1545  1.17764705882353E+0000  1.22941176470588E+0000  1.28117647058824E+0000
1546  1.17764705882353E+0000  1.22941176470588E+0000  1.26823529411765E+0000
1547  1.16470588235294E+0000  1.21647058823529E+0000  1.24235294117647E+0000
1548  1.16470588235294E+0000  1.20352941176471E+0000  1.25529411764706E+0000
1549  1.16470588235294E+0000  1.17764705882353E+0000  1.25529411764706E+0000
1550  1.16470588235294E+0000  1.15176470588235E+0000  1.25529411764706E+0000
1551  1.16470588235294E+0000  1.11294117647059E+0000  1.26823529411765E+0000
