3.764439
3.711253
3.906271
3.027619
3.203297
3.258096
3.178316
3.031649
3.945758
3.835355
3.924
3.108206
3.721729
3.850666
2.417583
3.576674
2.441759
2.442564
2.416777
2.229012
2.449012
2.287033
2.462711
3.623414
3.805538
3.071136
3.571033
2.710373
2.849787
2.619311
2.909421
2.255605
2.071869
2.450623
2.043664
2.309598
2.2274
2.243517
2.309598
2.252381
2.241099
2.478828
3.513011
3.558139
3.571838
2.392601
3.716894
2.474799
3.774109
3.591179
3.55008
3.753157
3.520263
3.871619
2.8103
2.86671
2.183077
2.095239
2.42403
2.158902
2.17663
2.123444
2.034799
2.291063
2.148425
2.269304
2.130697
2.068645
2.17663
2.32652
2.146814
2.285422
2.033187
2.220147
2.30718
2.136338
2.41033
2.865099
2.395019
2.302345
2.269304
2.389378
2.108132
2.185495
2.165348
2.161319
2.306374
2.165348
2.079927
2.296704
2.079121
2.351502
2.010623
2.021905
2.322491
2.133114
2.41033
2.05011
2.195165
2.122638
2.212894
2.32088
2.178242
2.036411
2.168572
2.313627
2.320074
2.425642
2.2137
3.525905
2.216923
2.257216
2.459488
2.436924
2.458682
2.332968
3.484806
3.488029
2.496557
3.782168
3.9103
3.3
3.529128
2.075898
2.100879
2.940044
2.465934
3.468688
3.637919
3.585538
2.388572
2.478828
3.636307
2.387766
3.604879
2.284616
3.633084
3.732205
3.523487
3.828908
2.339414
3.689494
3.519457
3.519457
3.751546
3.542022
3.564586
3.566198
3.579897
3.651619
3.671765
3.591179
3.72334
3.552498
3.655648
2.378901
2.34989
2.32088
2.208059
2.494946
2.033187
2.158902
2.105715
2.210477
2.266887
2.291063
2.327326
2.304762
3.629055
2.436118
3.51704
2.378096
2.408719
3.511399
3.73704
3.606491
3.642754
2.417583
3.579897
3.537187
2.414359
3.652425
2.313627
3.738652
3.546051
3.707223
3.822461
3.500923
3.765245
3.72334
3.607296
3.638725
3.538798
3.551692
3.787003
3.599238
3.778139
2.391795
2.46674
3.59682
3.517846
3.803927
2.482052
3.486417
2.461099
3.510593
3.683853
3.547663
2.333773
2.366008
2.359561
2.347473
2.304762
2.166154
2.299121
2.12989
3.542022
2.295898
2.368425
2.219341
2.349085
2.397436
3.571033
3.591179
3.662095
2.41033
3.938505
3.61052
3.716088
3.609714
2.474799
3.892571
3.694329
3.771692
3.649201
3.500923
3.648395
3.803121
3.745098
3.017143
3.616967
3.791033
3.795062
3.6903
3.163004
3.579897
3.899018
3.61052
3.700776
3.508982
2.312821
2.308792
2.358755
2.455458
2.47077
2.378096
2.249964
2.345055
2.342638
3.629861
2.238682
2.249964
2.268499
2.366814
3.545245
2.204836
2.301539
2.079121
2.210477
2.255605
2.274946
2.108938
2.191136
2.298315
2.44337
2.165348
2.020293
2.396631
2.483663
3.553304
3.508982
2.416777
2.207253
3.538798
3.499311
2.42403
3.476747
2.200001
3.55411
2.484469
3.652425
3.523487
2.474799
3.703194
3.599238
3.567809
3.545245
2.432894
2.322491
3.50334
2.456264
3.547663
2.299121
2.444982
3.467882
3.468688
3.578286
2.179048
2.378901
2.291063
3.542022
3.87726
3.262125
3.3
3.873231
2.278169
2.334579
3.475135
3.716894
3.662095
3.551692
3.524293
3.883707
3.752351
3.733011
3.700776
3.64356
3.142858
3.609714
3.88693
3.619384
2.079121
2.216923
2.397436
2.366008
2.924732
2.331356
2.165348
2.383737
2.310403
2.141978
2.2274
2.413553
2.448205
2.436924
2.249964
2.230623
2.366008
2.189524
2.465129
2.241099
2.432894
2.381319
2.462711
3.494476
2.217729
2.489305
2.284616
3.475135
2.483663
2.4337
2.270916
2.288645
2.307986
2.403883
2.294286
2.375678
2.316045
2.291869
3.51704
2.228206
2.486887
2.422418
3.510593
2.498975
2.282198
2.459488
2.095239
2.216923
2.259634
2.313627
2.235458
2.287033
2.133114
2.465129
2.257216
2.162125
2.108938
2.215312
2.397436
3.505758
3.513011
3.732205
2.41033
3.639531
3.50737
3.604073
3.615355
2.385349
3.566198
3.568615
3.870813
3.774109
3.757992
3.57748
3.818432
3.902241
3.958652
3.874842
3.778139
3.794256
3.794256
3.152528
3.579897
3.678212
2.379707
3.619384
3.545245
2.336191
2.355531
2.961802
2.371649
2.300733
2.32652
2.362784
2.301539
2.204836
2.412748
2.295092
2.283004
2.087986
2.904586
2.42403
2.118608
2.372455
2.104103
2.183077
2.243517
2.117803
2.295092
2.035605
2.300733
2.08718
3.565392
2.398242
2.365202
3.552498
3.571838
3.496894
3.52671
2.446594
2.487693
3.582315
3.468688
3.654842
2.430477
2.423224
2.332968
3.562168
2.479634
2.314433
2.446594
2.333773
3.578286
2.426447
3.467882
3.593597
3.229085
3.3
3.296777
2.397436
2.101685
2.92715
2.062198
3.495282
2.353114
3.529128
2.199195
3.561362
3.590373
2.474799
3.673377
2.364396
3.516234
2.454653
2.493334
3.489641
2.465934
2.42403
3.629861
2.485275
3.604073
3.483194
2.354726
3.71367
2.488498
2.224982
2.104909
2.905392
2.312821
2.179854
2.453041
2.430477
2.04044
2.195165
2.054945
2.319268
2.175825
2.196777
2.092821
2.178242
2.294286
2.290257
2.189524
2.178242
2.234652
2.20403
3.485612
2.267693
2.277363
2.076704
2.313627
2.429671
2.312015
2.381319
2.046887
2.353114
2.232235
2.29348
2.269304
2.181466
2.197583
2.384543
2.268499
2.352308
2.162125
2.16696
3.552498
2.249964
3.591179
2.263664
2.287033
2.42403
2.390989
3.467882
2.304762
2.355531
2.371649
2.402272
2.384543
2.42
2.167766
2.391795
3.728176
3.3
3.049378
2.192748
2.757919
2.865099
2.009011
2.343444
2.12022
2.327326
2.154066
3.529128
2.473187
2.449012
2.436118
2.241099
3.704
2.486081
3.515428
3.572644
3.542022
3.695941
3.803121
3.637919
3.668542
3.558139
3.589568
3.796674
3.525905
3.915135
3.50334
3.768468
3.753157
3.655648
3.80715
2.228206
2.382931
2.397436
2.465129
2.371649
2.286227
2.200806
2.461905
2.31685
3.487223
2.370843
2.14359
3.521875
2.233846
3.546857
2.281392
2.308792
2.376484
2.294286
2.154066
2.301539
3.588761
2.42403
3.747516
3.502534
3.506564
2.37326
2.40066
2.478828
3.475135
2.384543
2.32088
2.317656
2.491722
3.683047
2.477217
3.567809
2.215312
3.63389
3.525905
3.475941
3.532351
2.139561
3.487223
2.370037
2.444176
2.463517
2.42403
2.483663
3.687883
3.55008
3.52671
2.245129
2.2274
3.67096
2.239488
3.681435
2.243517
2.46674
3.537992
2.449012
3.525905
2.365202
2.331356
2.38696
3.567003
3.865978
3.3
3.891765
3.520263
2.96019
2.32088
2.361173
2.205642
2.366008
2.471576
3.632278
3.927223
3.708029
3.854696
3.481582
3.745904
3.613743
3.587956
3.689494
3.504952
3.02359
3.790227
3.874036
3.683853
3.622608
3.695941
3.678212
2.495751
2.418389
2.286227
2.486887
3.628249
2.256411
2.477217
2.965831
2.366008
2.311209
2.174213
2.459488
2.027546
2.342638
2.313627
2.41033
2.490916
2.320074
2.249158
2.465934
2.269304
2.394213
2.217729
2.156484
2.430477
2.261246
3.622608
2.259634
2.378901
2.375678
2.398242
3.542827
2.336997
2.288645
2.314433
2.244323
3.474329
3.687077
2.285422
2.390989
3.748322
3.484806
3.778139
3.61052
3.71367
3.625025
3.72334
3.236337
3.3
3.293554
3.616161
2.043664
2.219341
3.488029
3.528322
3.861948
2.309598
3.578286
3.61052
3.632278
3.743487
3.480776
3.682242
3.725758
3.811985
3.836967
3.781362
2.458682
3.851472
3.710447
3.814402
3.622608
3.472718
3.878066
3.565392
3.119488
3.597626
3.849055
3.698359
3.762022
3.78378
3.739458
3.494476
2.372455
2.461905
3.476747
2.414359
2.274946
2.393407
2.065422
2.408719
2.312015
2.288645
2.175825
2.748249
2.933597
2.391795
2.233846
2.403883
2.965025
2.481246
2.233041
2.31685
2.449012
2.068645
2.390989
2.388572
2.42403
2.379707
2.20403
2.29751
3.516234
2.275751
3.49367
2.296704
2.375678
3.494476
2.295898
3.632278
2.313627
3.598432
3.566198
2.494946
2.475605
2.261246
2.320074
2.307986
2.253187
2.399854
2.346667
2.039634
2.30718
2.216118
3.547663
2.306374
2.276557
2.32088
2.37729
3.907076
3.042125
3.3
2.465129
2.938432
2.071869
2.083956
2.210477
2.226594
2.304762
2.425642
2.315238
2.361173
2.438535
3.564586
3.781362
3.704806
3.870813
3.529128
3.72334
3.629055
3.508982
3.775721
2.413553
3.705611
2.411136
3.483194
3.500923
2.071063
2.193553
2.151649
2.332968
2.320074
2.222564
2.140367
2.37729
2.217729
2.436924
2.124249
2.171795
2.273334
2.05414
2.303956
2.923121
2.126667
2.029964
2.2137
2.346667
2.196777
2.071869
2.055751
2.119414
2.341026
2.29348
2.183077
2.168572
2.118608
3.547663
2.217729
2.34989
2.118608
2.166154
3.591179
2.220147
2.461099
2.194359
2.158902
2.322491
2.307986
2.486887
2.453041
2.199195
2.494946
2.325715
2.485275
3.575062
2.452235
3.547663
3.840996
3.139634
3.3
3.712864
2.336191
2.114579
2.011429
2.487693
2.329744
3.648395
3.488029
3.623414
3.613743
2.461905
2.442564
2.449012
3.63389
3.616967
2.449012
2.336997
3.49367
3.508982
3.803927
3.471912
3.567809
3.545245
3.528322
3.681435
2.391795
3.629055
3.487223
3.68063
3.71367
3.662095
3.525099
2.383737
2.318462
3.551692
2.426447
2.336191
2.305568
2.103297
2.403077
2.031575
2.367619
2.166154
3.481582
2.488498
2.397436
3.545245
2.112162
2.475605
2.346667
2.416777
2.388572
2.14359
2.449012
2.371649
3.492058
3.479164
2.358755
2.396631
3.528322
2.442564
3.529934
2.249964
2.29348
2.313627
2.30315
3.638725
2.332162
3.504146
2.371649
3.641949
3.629861
3.489641
2.498169
2.41033
2.458682
2.487693
3.491253
2.434506
2.440147
2.367619
3.672571
2.285422
3.496087
2.290257
2.440953
3.662901
2.272528
3.472718
2.272528
3.764439
3.274213
3.3
3.749934
2.048499
2.265275
2.357949
2.289451
3.491253
2.474799
2.325715
2.463517
3.638725
3.622608
3.835355
3.524293
3.810373
3.803927
3.725758
3.890154
3.606491
3.032454
3.831326
3.865978
3.757187
3.579091
3.558945
2.431283
3.57748
3.575062
3.473524
2.301539
2.333773
2.245129
3.49367
2.226594
2.444982
2.242711
2.255605
3.47997
2.15326
2.365202
2.049304
2.336191
2.230623
2.137143
2.150037
2.035605
2.058975
2.268499
2.216923
2.238682
2.098462
2.962608
2.393407
2.02674
2.328938
2.104909
2.217729
2.499781
2.109744
2.367619
2.31685
2.036411
3.619384
2.335385
3.591179
2.413553
2.272528
2.461905
2.49011
3.597626
2.428059
2.30315
2.312821
3.500117
3.500117
3.695941
2.310403
3.506564
3.499311
3.533157
3.562168
2.252381
2.407107
2.158902
2.382125
2.300733
2.418389
2.282198
2.146008
2.398242
2.306374
2.238682
2.296704
2.243517
2.196777
3.645172
2.449012
3.3
3.133187
3.616967
2.079121
2.823194
2.238682
2.014652
2.372455
2.324909
2.394213
2.474799
2.325715
2.308792
3.488029
2.30718
2.498975
3.472718
2.391795
3.679824
3.81682
3.941729
3.569421
3.755575
2.484469
3.535575
3.598432
2.24674
2.152455
3.475135
2.415165
3.694329
3.855502
3.651619
3.864366
3.693524
3.158169
3.135605
3.184762
3.211356
3.086447
3.919165
3.934476
3.725758
3.745098
3.545245
3.546051
3.784586
2.478828
3.591179
2.196777
2.339414
2.390989
2.26044
2.436924
2.021099
2.090404
2.256411
2.198389
2.355531
2.397436
2.298315
3.569421
3.580703
3.807956
3.62019
2.484469
3.894183
3.612131
3.822461
3.777333
3.860337
3.871619
3.859531
3.631472
2.075092
2.809494
2.616894
2.011429
2.70715
2.803047
2.503267
2.668469
2.936014
2.063004
2.104909
2.916674
2.853817
2.900556
2.133114
2.919091
2.075898
2.81997
2.464323
3.700776
3.030843
3.3
3.3
3.3
3.3
3.3
3.3
3.3
3.3
3.3
3.3
3.24359
3.707223
2.335385
2.4337
2.139561
3.542827
2.092015
2.204836
2.191942
2.959384
2.155678
2.035605
2.075092
2.033993
2.088792
2.046887
2.100879
2.823194
2.158096
2.954549
2.150037
2.795795
2.664439
1.037949
1.046008
1.43685
2.479091
1.075825
1.112088
1.126594
2.584659
2.670886
2.840923
2.075092
2.146814
3.623414
3.506564
3.948176
3.80715
3.632278
3.740264
3.907883
3.882095
3.824879
2.4474
3.564586
3.632278
2.379707
3.590373
2.233846
3.568615
2.337803
3.545245
3.789421
3.753157
3.3
3.3
3.3
3.001026
3.578286
2.458682
3.938505
3.045348
3.194433
3.00022
3.964293
3.044543
3.735428
3.3
3.258096
3.3
3.3
3.3
3.3
3.3
3.3
3.013114
3.113847
2.265275
3.603267
2.940044
2.31685
2.15326
2.872351
2.877187
2.496014
2.740996
2.775648
2.769201
2.965025
2.092821
2.948908
2.479634
2.284616
2.389378
2.292675
2.318462
3.494476
2.409524
3.780557
3.72737
3.629861
3.558139
3.835355
3.71367
3.939311
3.571838
3.654842
3.828908
3.524293
3.837772
2.374872
3.687077
3.649201
3.475135
3.529934
2.397436
2.399048
2.449817
2.427253
3.468688
3.640337
2.42403
3.619384
2.432894
3.704
2.272528
2.299121
2.421612
2.954549
2.291063
2.952937
2.918285
1.058096
1.128206
2.842535
2.830447
2.139561
2.05011
2.863487
2.281392
2.121026
2.216118
2.097656
2.187912
2.386154
2.362784
2.369231
2.462711
2.094433
3.478359
3.508982
2.258828
3.648395
2.195971
3.558139
3.569421
3.60085
3.687077
2.474799
3.639531
3.504952
3.529128
3.474329
2.264469
2.33055
2.451429
2.146814
2.384543
2.01707
2.103297
2.103297
2.96019
2.4474
2.940044
2.184689
2.114579
2.165348
2.258828
2.232235
2.092015
2.158902
2.242711
2.395824
2.162931
2.078316
2.395019
2.139561
3.582315
2.000953
2.191136
2.366008
2.282198
3.479164
2.474799
3.467882
3.481582
2.251576
3.681435
2.46674
3.637113
2.45707
2.278975
3.546051
2.434506
3.614549
3.49367
2.18066
2.287839
2.42
2.346667
3.468688
2.91345
2.392601
2.194359
2.294286
3.489641
2.865904
2.277363
2.125055
2.485275
3.520263
3.579897
3.183956
3.270184
3.523487
2.165348
2.016264
2.076704
2.371649
2.474799
3.639531
2.34425
2.439341
3.498505
2.436924
3.576674
2.315238
2.473187
2.384543
3.634696
3.536381
3.467882
2.455458
2.453847
3.686271
3.562168
3.56378
2.195165
2.332968
3.497699
2.404689
2.309598
2.307986
2.101685
3.535575
2.411136
2.360367
2.313627
2.105715
3.625831
2.332162
3.549275
2.360367
2.365202
2.451429
2.436118
3.553304
2.42403
2.249158
2.409524
3.486417
2.423224
3.635502
2.179048
2.411136
2.345861
3.614549
3.683047
2.327326
3.490447
2.472381
3.733816
3.645172
3.65323
2.444982
3.50334
3.712864
3.586344
3.497699
2.449012
3.587956
3.500923
3.803121
3.525099
3.766857
2.462711
3.584732
3.739458
2.204836
2.357143
2.496557
2.407912
3.739458
2.412748
3.855502
2.358755
3.56378
3.821655
3.216191
3.3
3.008279
2.274946
2.187912
2.170183
2.336997
3.709641
2.493334
3.828102
3.483194
3.722535
3.814402
3.641949
3.51704
3.919971
3.733816
3.003444
3.883707
3.69997
3.836161
2.482052
3.655648
3.538798
3.527516
2.296704
2.214506
2.265275
3.472718
2.338608
2.362784
2.229817
2.279781
2.401466
2.11055
3.484
2.101685
2.254799
2.318462
2.334579
3.475135
2.020293
2.290257
2.269304
2.332968
2.403077
2.329744
2.124249
2.258022
2.419194
3.533157
3.511399
2.417583
2.366008
2.405495
2.487693
3.594403
2.32088
3.60085
2.403077
3.645172
3.655648
2.436924
3.468688
2.242711
3.608102
2.468352
2.455458
2.380513
2.268499
2.332968
2.394213
2.380513
2.217729
2.195165
2.381319
3.534769
2.455458
3.067913
3.171063
3.15414
2.341026
2.859458
2.02674
2.904586
2.488498
2.305568
2.389378
2.453847
2.352308
2.450623
3.481582
2.282198
2.445788
2.299121
2.378096
3.661289
2.291869
3.569421
2.278169
3.554916
3.651619
2.457876
2.365202
2.184689
2.167766
2.474799
2.191942
2.357949
2.097656
2.12989
2.230623
2.191942
2.240294
2.342638
2.193553
2.14359
2.117803
2.162931
2.393407
2.107327
2.328938
2.015458
2.407107
2.307986
2.158902
2.205642
2.152455
2.477217
2.232235
2.294286
2.220147
2.217729
2.224176
2.255605
2.228206
2.301539
2.063004
2.258828
2.399048
2.001759
2.271722
2.853817
2.40066
2.357143
2.311209
2.339414
2.062198
2.301539
2.229012
2.36359
2.372455
2.098462
2.12022
2.364396
2.249158
2.456264
2.191136
2.092821
2.228206
2.397436
3.467882
2.135532
2.449012
2.40066
3.074359
3.161392
3.3
3.694329
2.044469
2.230623
2.002565
2.358755
2.449817
2.475605
3.620996
3.555721
2.477217
3.609714
3.525905
3.629861
3.59682
3.554916
3.796674
3.475941
3.855502
3.574256
3.763633
3.772498
2.452235
3.740264
3.687077
3.681435
3.602461
3.646784
3.833743
3.035678
3.621802
3.893377
3.574256
3.622608
3.748322
3.475135
3.739458
2.238682
2.419194
2.318462
2.333773
3.50334
2.324909
2.372455
2.368425
2.370037
2.253187
2.272528
3.520263
3.549275
3.710447
3.662095
3.606491
3.537992
3.66693
3.471106
3.6903
3.704806
2.366008
3.531546
3.471106
3.813597
3.523487
3.49367
2.423224
2.449012
3.722535
3.527516
3.506564
2.442564
3.558139
3.561362
3.719311
3.683047
3.600044
2.428865
3.76041
3.631472
2.396631
3.670154
2.351502
3.626637
3.534769
3.51704
3.564586
2.428059
3.558945
3.467882
3.600044
3.592791
2.40066
3.728981
3.3
3.3
3.064689
2.075092
2.125055
2.214506
2.320074
3.719311
2.295898
2.266081
2.432894
3.855502
3.538798
3.69997
3.745098
3.625025
3.857919
3.74671
3.86356
3.733011
3.791033
3.855502
3.704
3.622608
3.579091
2.359561
2.491722
2.356338
2.242711
2.291063
2.123444
2.473187
2.229817
2.462711
2.217729
2.07348
2.461905
2.264469
2.355531
2.056557
2.961802
2.131502
2.191136
2.062198
2.360367
2.923926
2.307986
2.195971
2.158902
2.444176
2.919897
2.261246
2.155678
2.26044
2.236264
2.902974
2.109744
2.155678
2.138755
2.182271
2.057363
2.096044
2.399048
2.090404
2.303956
2.324103
2.262052
3.558139
3.504952
3.584732
2.399854
2.259634
2.388572
2.220147
3.693524
2.232235
3.62422
3.629861
3.3
3.3
3.63389
2.200001
2.855428
2.071063
2.415971
3.513817
2.32088
2.361173
2.167766
3.47997
2.345861
2.294286
3.515428
2.20403
3.549275
2.307986
3.47997
3.533963
2.423224
3.668542
3.645172
3.68063
3.772498
3.578286
3.787003
3.897406
3.80715
3.172674
2.445788
3.848249
3.796674
3.768468
3.894183
2.200001
2.461905
2.294286
2.493334
2.44337
2.24674
2.140367
2.781289
2.926344
2.449012
2.191136
2.30718
2.266887
2.435312
3.476747
2.284616
2.268499
2.403883
2.336997
2.498169
2.320074
2.381319
2.403883
2.2274
3.604073
2.253187
3.53074
2.32088
2.195971
2.445788
2.387766
2.432088
2.275751
2.295898
3.584732
3.558945
2.353114
2.429671
2.113773
3.62019
2.412748
2.86671
2.823194
3.605685
2.320074
3.720923
3.510593
3.568615
3.715282
3.522681
3.695135
3.58715
3.635502
3.625025
3.609714
3.519457
3.648395
3.687883
3.883707
3.687077
3.482388
3.575062
3.519457
3.903047
2.13392
2.262857
2.394213
2.165348
2.473187
2.203224
2.322491
2.278975
2.048499
3.584732
2.175019
2.449012
2.230623
2.191136
2.414359
2.288645
2.360367
2.306374
2.150037
2.34425
2.350696
2.252381
3.560556
2.154872
2.457876
2.256411
2.317656
3.49367
2.165348
3.506564
2.175825
2.413553
2.451429
2.295898
2.32088
2.310403
2.384543
3.511399
2.216923
2.223371
2.378901
2.28381
2.491722
2.165348
2.455458
2.394213
2.427253
3.510593
2.339414
2.390989
2.223371
2.478828
2.44337
2.356338
2.401466
3.055019
3.593597
2.12022
2.125055
2.065422
2.209671
2.456264
2.40066
2.399854
2.441759
2.205642
3.616161
2.407107
3.674989
3.590373
2.34022
3.726564
2.374066
3.645172
3.506564
2.423224
3.711253
3.693524
3.58715
3.67096
3.506564
3.665318
3.65323
3.596014
3.80715
2.411942
3.851472
3.475135
3.54041
3.568615
2.296704
2.353114
2.058169
2.281392
2.252381
2.108938
2.100879
2.15326
2.133114
2.301539
2.205642
2.234652
2.174213
2.178242
2.482052
2.036411
2.371649
2.004982
2.365202
2.440953
2.183883
2.13392
2.198389
2.175825
3.616161
2.355531
3.623414
2.199195
2.453041
3.494476
2.474799
3.598432
3.497699
2.29751
3.55008
2.372455
2.37729
3.502534
2.298315
3.629861
2.405495
3.725758
3.685465
2.248352
3.474329
2.262052
3.614549
2.461905
2.34989
2.263664
2.313627
2.358755
2.391795
2.183077
2.423224
2.415165
2.407912
2.481246
2.324909
3.843414
3.094506
3.202491
2.474799
2.096044
2.082345
2.010623
3.467882
2.397436
2.487693
2.416777
2.468352
2.461905
3.69997
3.494476
3.626637
2.449817
2.462711
3.481582
3.581509
3.701582
3.619384
3.622608
3.907076
3.512205
3.787003
3.528322
2.372455
3.553304
2.336191
3.609714
2.23707
2.193553
2.324103
2.444982
2.393407
2.357949
2.211282
2.354726
2.352308
2.4337
2.428865
2.144396
3.554916
2.345861
3.612937
3.524293
2.329744
3.504146
2.291869
3.652425
3.483194
3.475135
3.490447
2.494946
2.487693
3.648395
3.498505
3.488029
2.314433
2.387766
3.669348
2.413553
2.451429
2.172601
3.514622
3.630666
3.621802
3.683853
2.474799
3.745098
3.639531
2.369231
2.185495
3.484
3.566198
3.545245
3.633084
2.404689
2.474799
3.906271
3.244396
3.3
3.828908
2.89411
2.166154
2.878798
2.385349
2.449012
2.422418
2.478828
2.336997
3.65323
3.582315
3.475135
2.494946
3.664512
3.739458
3.662095
3.538798
3.629861
3.529128
3.791033
3.6766
3.556527
3.828102
2.464323
3.961069
3.716894
3.799897
3.684659
3.553304
3.964293
3.636307
3.622608
3.574256
3.510593
2.485275
3.471106
2.303956
2.427253
2.063004
2.245934
2.411136
2.095239
2.324103
2.834476
2.188718
2.33055
2.148425
3.673377
2.145202
2.411942
3.546051
2.290257
3.648395
2.275751
2.372455
2.429671
2.456264
2.412748
2.467546
2.177436
3.509787
2.298315
2.423224
2.488498
2.14359
2.435312
2.222564
3.751546
2.423224
3.484
3.542827
2.350696
3.558139
2.371649
2.34022
2.18066
2.251576
3.489641
2.482052
2.278169
2.449012
2.332968
3.637919
3.500923
2.285422
3.472718
2.384543
3.133187
3.22425
3.282271
2.461905
2.956161
2.081539
2.183077
2.232235
2.329744
2.243517
2.295092
2.459488
2.390989
2.182271
2.211282
3.547663
3.634696
3.532351
3.770886
3.525905
3.484
3.042125
3.623414
3.932864
2.498169
3.662095
3.481582
2.382125
3.496087
2.216923
2.200806
2.191136
2.366008
2.414359
2.241099
2.052528
2.291063
2.249158
2.456264
2.301539
2.054945
2.228206
2.141173
3.535575
2.24674
2.259634
2.123444
2.125055
2.404689
2.201612
2.274946
2.126667
2.242711
2.372455
2.359561
2.214506
2.439341
2.195971
2.100879
2.307986
3.687077
3.482388
3.558139
2.216923
3.496894
2.33055
2.307986
2.453041
2.152455
2.406301
2.745831
2.678945
2.242711
2.216923
2.49414
2.394213
2.478022
3.738652
3.529934
3.576674
2.321685
2.452235
3.504146
3.650007
3.558139
3.520263
2.385349
3.608908
2.49414
3.554916
3.583926
2.33055
3.710447
2.497363
3.751546
3.59682
3.61052
3.81682
3.668542
3.662901
3.522681
2.490916
3.567809
3.560556
2.359561
3.483194
2.048499
2.370037
2.183077
2.291063
2.274946
2.811912
2.371649
2.183883
2.34425
2.345055
2.150037
2.23707
2.362784
2.30718
2.420806
2.114579
2.128279
2.239488
2.087986
2.948102
2.954549
2.252381
2.194359
2.449012
2.229817
2.229817
2.261246
2.121026
3.619384
2.287839
3.475941
2.295092
2.394213
2.453041
2.359561
2.488498
2.204836
2.327326
2.481246
3.584732
3.575062
3.478359
2.32088
3.655648
2.295092
2.357949
2.388572
2.151649
3.561362
2.383737
3.616967
3.498505
2.307986
3.520263
2.475605
3.510593
3.65726
3.510593
3.132381
3.3
3.632278
2.409524
2.759531
2.237876
2.287033
3.474329
3.681435
2.360367
3.476747
3.49367
3.705611
3.571838
2.475605
2.436924
2.407107
3.586344
3.001026
3.897406
3.841802
3.712864
3.022784
3.011502
3.875648
3.523487
3.529128
2.474799
3.612131
2.368425
3.536381
2.333773
2.179854
3.616161
2.311209
2.488498
2.216923
2.329744
3.580703
3.496894
3.561362
2.488498
2.430477
3.52671
3.595209
3.55411
3.502534
2.223371
3.693524
3.49367
3.646784
3.684659
2.287839
3.67096
2.385349
3.529934
3.468688
2.320074
2.454653
3.473524
3.565392
3.636307
2.269304
2.417583
3.50737
2.388572
3.635502
2.26044
3.571838
2.475605
3.557333
2.926344
2.08718
2.26044
2.252381
3.518652
2.294286
3.49367
2.302345
3.555721
3.009891
3.3
3.222638
2.262857
2.963414
2.046081
2.130697
2.277363
2.30718
2.170183
3.751546
2.49414
3.651619
2.488498
2.307986
3.677406
2.440147
3.778139
2.439341
2.463517
3.614549
3.692718
3.732205
3.732205
2.362784
3.537187
3.661289
3.682242
3.920776
2.453041
3.909494
3.537187
3.869201
3.839384
2.370843
3.564586
2.435312
3.468688
2.299927
2.18066
2.165348
2.336191
2.300733
2.31685
2.068645
2.158902
2.012235
2.033187
2.345861
2.449817
2.314433
2.311209
2.366814
3.656454
2.296704
2.449817
2.353114
2.249158
3.492058
2.187107
3.64759
2.249158
2.430477
2.403883
2.319268
3.500117
2.368425
2.366814
2.428059
2.378901
2.393407
3.595209
2.40066
3.752351
2.456264
3.578286
2.366814
2.108132
2.453041
2.249158
2.492528
2.371649
2.285422
2.411942
2.301539
2.375678
2.488498
2.123444
2.345861
2.488498
3.724952
3.3
3.123517
3.787809
2.943267
2.862681
2.898139
2.908615
2.184689
2.091209
2.371649
2.255605
2.201612
2.390184
2.295092
3.648395
3.683047
2.472381
3.579091
2.422418
3.541216
3.645978
3.619384
3.592791
3.581509
2.365202
3.582315
2.237876
2.416777
2.140367
2.123444
2.399048
2.064616
3.467882
2.094433
2.152455
2.27011
2.208865
2.281392
2.254799
2.039634
2.406301
2.338608
2.23707
2.385349
2.020293
2.478828
2.179048
2.415165
2.243517
2.04044
2.244323
2.082345
2.306374
2.179048
2.128279
2.135532
2.265275
2.245934
3.4703
2.148425
2.195165
2.268499
2.223371
2.407107
2.198389
2.430477
2.219341
3.578286
2.402272
3.698359
2.411136
2.336997
3.661289
2.376484
3.497699
2.141978
2.390989
3.586344
2.475605
3.496894
2.436924
2.356338
3.561362
3.683853
3.109817
3.3
3.774916
3.483194
2.013041
2.282198
2.13392
2.360367
3.700776
2.310403
3.533157
2.411136
2.423224
3.545245
3.599238
3.51704
3.582315
2.436118
3.712864
3.654842
3.565392
3.655648
2.32652
3.739458
2.434506
3.879677
3.792644
3.691106
3.65726
3.69997
3.011502
3.696747
3.732205
3.674183
3.60085
3.54041
3.78378
2.088792
2.072674
2.41033
2.269304
3.513817
3.569421
3.583926
3.710447
3.546051
2.34989
3.58715
3.545245
3.664512
3.60085
2.331356
3.903047
3.52671
3.733011
3.677406
3.576674
3.749128
3.47997
3.795062
3.664512
3.513011
3.658066
3.668542
3.633084
3.730593
3.631472
3.733011
3.536381
3.606491
3.648395
3.484806
3.655648
2.411136
3.628249
3.532351
3.572644
2.395824
2.423224
3.584732
2.449817
3.497699
3.79748
3.094506
3.3
3.179121
2.146814
2.198389
2.782901
2.34425
3.539604
2.328938
3.646784
2.204836
3.55411
3.519457
3.513011
3.767663
3.49367
3.606491
3.736234
3.559751
3.006667
3.630666
3.708835
3.635502
3.806344
3.588761
3.674183
2.394213
2.412748
2.415165
3.468688
2.279781
2.100879
2.442564
2.083956
2.431283
2.291063
2.268499
2.277363
2.121832
2.305568
2.242711
2.211282
2.079121
2.207253
2.388572
2.378901
2.258828
2.428865
2.204836
2.384543
2.434506
2.23707
2.403883
2.167766
2.430477
2.262052
2.41033
2.34022
2.140367
2.265275
2.416777
2.374066
2.23707
2.079121
2.182271
2.41033
2.163737
2.220953
2.208059
2.346667
2.465934
2.397436
3.559751
3.485612
2.173407
2.491722
2.257216
3.716088
2.339414
3.514622
3.829714
3.088059
3.3
3.928029
2.254799
2.848176
2.049304
2.324909
2.412748
2.268499
3.488029
2.458682
3.649201
2.427253
2.303956
2.431283
2.345861
3.732205
3.513011
3.467882
2.367619
3.535575
3.662095
3.471912
3.506564
2.432894
3.490447
3.525905
3.801509
3.478359
3.648395
2.416777
3.9103
3.720117
3.497699
3.638725
2.252381
2.436924
2.237876
2.310403
2.349085
2.171795
2.959384
2.07348
2.368425
2.188718
2.278975
2.204836
2.429671
2.472381
2.436924
2.236264
2.449817
2.245934
3.521069
2.404689
2.108938
2.41033
2.270916
2.49011
2.178242
2.368425
2.355531
2.442564
2.436118
2.358755
2.453847
2.313627
2.477217
2.370037
2.442564
2.397436
2.456264
2.288645
3.667736
2.484469
2.472381
3.49367
2.30315
3.621802
2.230623
2.345861
2.208059
2.161319
2.29751
2.432894
2.41033
2.41033
2.101685
2.214506
2.33055
2.281392
3.6766
2.403883
3.199268
3.154946
3.538798
2.351502
2.206447
2.416777
3.545245
2.437729
3.796674
3.497699
3.645978
3.484806
3.567003
3.711253
3.584732
3.539604
3.478359
3.774109
3.850666
3.733011
3.545245
3.827297
3.51704
3.748322
3.638725
2.387766
2.331356
2.242711
2.487693
2.234652
2.254799
2.052528
2.224982
2.2137
2.165348
2.268499
2.037216
2.078316
2.357143
2.346667
2.173407
2.390989
2.151649
3.468688
2.307986
2.352308
2.428865
2.071869
2.445788
2.295092
2.475605
2.34989
2.354726
2.401466
3.480776
2.449012
3.583121
2.150037
2.166154
2.469964
3.494476
3.475135
3.553304
3.771692
3.584732
3.874036
3.617773
3.51704
3.556527
2.477217
3.55411
2.266887
2.442564
2.498975
3.612131
3.613743
3.612937
3.580703
2.42403
2.472381
3.524293
3.852278
3.094506
3.3
3.120293
3.560556
2.042858
2.283004
2.271722
2.291869
3.57345
2.34425
3.678212
2.327326
2.360367
3.616967
3.50737
3.467882
3.467882
2.371649
3.668542
3.536381
2.449817
3.548468
2.208865
3.816014
2.426447
3.557333
3.658066
2.479634
3.776527
3.505758
3.709641
2.919897
2.925538
2.372455
2.251576
2.397436
2.432894
2.287839
2.268499
2.268499
2.428059
2.34989
2.327326
2.253187
2.299121
2.187912
3.500117
2.294286
2.329744
2.360367
2.368425
3.629055
2.20403
2.474799
2.205642
2.499781
3.562168
2.44337
2.475605
2.358755
2.327326
3.468688
3.475135
2.399854
2.423224
2.370037
3.749934
2.474799
3.560556
2.417583
2.230623
3.697553
2.358755
3.708029
3.525905
3.513817
3.546051
3.578286
3.494476
2.455458
2.137143
2.36359
2.453041
2.32088
2.474799
2.053334
2.490916
2.778066
2.858652
3.485612
2.478828
2.486081
2.465934
2.491722
3.64356
2.361979
3.542022
2.416777
3.626637
3.622608
3.558945
3.625831
3.071136
3.641142
3.661289
3.693524
3.552498
3.533157
2.475605
2.214506
2.42
2.329744
2.391795
2.42403
2.062198
2.478022
2.200001
3.549275
2.431283
2.222564
2.365202
2.262052
3.476747
2.391795
2.274946
2.307986
2.347473
2.303956
3.576674
2.223371
2.475605
2.385349
2.34989
2.417583
2.079927
2.342638
2.302345
3.532351
2.385349
2.233846
2.212894
2.345861
2.449012
2.431283
2.149231
2.210477
2.126667
3.522681
3.521875
3.496894
2.427253
2.245129
2.303956
2.462711
2.335385
2.49414
2.498975
3.564586
3.3
3.3
3.216997
2.058169
2.017876
2.25077
2.116191
2.474799
2.271722
2.453847
3.557333
3.566198
2.439341
3.475135
2.242711
3.571033
2.445788
3.584732
3.686271
2.310403
3.571838
2.387766
3.757992
3.586344
2.474799
3.513817
2.456264
3.557333
3.529128
2.489305
3.621802
3.802315
3.674989
3.704
2.339414
2.378096
2.371649
2.406301
2.336997
2.032381
2.217729
2.859458
2.335385
2.204836
3.506564
2.242711
2.469158
3.542827
2.320074
2.475605
2.199195
2.446594
2.357143
2.359561
2.367619
2.276557
2.211282
2.465129
2.294286
2.287839
2.395019
2.191136
3.575062
2.288645
3.510593
2.378096
2.467546
3.688688
2.484469
3.648395
3.556527
2.455458
3.538798
3.533157
3.50737
3.591179
2.368425
3.61052
2.378901
3.487223
3.59682
2.282198
3.520263
2.34989
3.477553
2.453847
3.777333
3.211356
3.3
3.855502
2.169378
2.861069
2.797406
2.118608
2.423224
3.471106
2.384543
2.304762
2.382931
3.63389
3.779751
3.488835
3.59682
3.508982
3.652425
3.051795
3.698359
3.022784
3.661289
3.691106
3.731399
2.492528
3.693524
2.371649
2.395824
2.302345
2.292675
2.455458
2.432088
2.079121
3.525905
2.226594
2.371649
2.436924
2.063004
2.40066
2.12989
2.487693
2.288645
2.132308
2.299121
2.232235
2.295898
2.397436
2.225788
2.169378
2.371649
2.353114
2.404689
2.193553
2.32088
2.165348
2.495751
2.449817
2.147619
2.320074
2.151649
2.374872
2.370037
2.235458
2.119414
2.183077
2.346667
2.336191
2.474799
3.712864
2.406301
3.644366
2.459488
2.442564
3.480776
2.401466
2.278975
2.429671
2.385349
2.491722
2.144396
2.12989
2.444176
2.236264
3.54041
2.229817
2.365202
3.757992
3.3
3.270184
2.355531
2.881216
2.799824
2.942461
2.345055
2.378096
2.113773
3.54041
2.253993
2.486081
3.492058
2.256411
2.469964
2.332968
3.69997
3.51704
3.519457
3.495282
2.442564
3.562974
3.650813
2.437729
3.480776
3.620996
3.560556
3.735428
3.681435
3.726564
3.4703
3.880483
3.818432
2.097656
2.912644
2.181466
2.452235
2.185495
2.420806
2.01707
2.423224
2.478022
2.266081
2.395824
2.126667
2.253187
2.320074
2.428059
2.399854
2.232235
2.216923
3.551692
2.36359
2.475605
2.241099
2.30718
3.494476
2.161319
3.590373
2.282198
2.200806
2.444176
2.411136
2.399048
2.445788
2.337803
2.322491
2.352308
2.465129
2.440147
2.191136
2.404689
2.191136
3.588761
2.357143
2.450623
2.380513
2.272528
3.490447
2.459488
2.484469
2.387766
2.438535
3.511399
3.651619
2.412748
3.479164
2.249964
3.560556
3.728176
3.3
3.3
3.894183
2.298315
2.404689
2.217729
3.558139
2.37729
3.632278
3.6766
3.494476
3.779751
3.479164
3.771692
3.649201
3.609714
3.683853
3.508982
3.510593
2.488498
2.490916
3.545245
3.571838
2.268499
3.571033
3.481582
3.721729
2.475605
3.49367
3.57748
3.590373
3.774916
3.513011
3.751546
3.545245
3.68063
3.604073
3.481582
2.411136
2.491722
2.478828
2.484469
3.514622
2.448205
2.401466
2.275751
3.568615
2.471576
3.601656
2.30315
2.241099
3.477553
2.408719
2.2137
2.908615
3.505758
2.394213
3.711253
3.525905
2.465129
3.567003
3.532351
3.709641
3.83052
3.74671
3.773304
3.038096
3.84422
3.875648
3.529128
3.706417
3.700776
3.546051
3.717699
3.548468
3.776527
3.471912
3.616161
2.017876
2.318462
3.529934
3.268572
3.004249
3.58715
2.268499
2.216923
2.116997
2.262052
3.475941
3.687883
3.588761
3.58715
3.765245
3.50737
3.050989
3.607296
3.861143
3.810373
3.639531
3.950593
3.861948
3.898212
3.799897
3.791033
3.832937
3.006667
3.962681
3.17751
3.53074
2.965025
2.158902
2.41033
2.286227
2.146814
2.189524
2.062198
2.374872
2.948102
2.941655
2.092821
2.124249
2.263664
2.187107
2.296704
2.077509
2.416777
2.490916
2.378901
2.338608
2.384543
2.361979
3.604073
2.337803
2.310403
2.381319
2.343444
3.549275
2.272528
3.656454
2.403883
2.357949
2.49414
2.320074
3.567809
2.288645
2.32088
3.485612
3.484806
2.40066
2.484469
2.294286
3.694329
2.494946
2.366814
2.468352
2.171795
2.461905
2.223371
3.517846
2.499781
2.249964
2.416777
2.415971
2.474799
2.96019
2.069451
3.684659
3.49367
3.883707
3.803121
3.792644
3.492058
3.622608
3.696747
3.876454
3.649201
2.459488
3.712864
3.68063
3.778945
3.545245
3.838578
3.50737
3.68063
3.906271
3.559751
3.721729
3.646784
3.861948
3.716894
3.809567
3.790227
3.669348
2.413553
3.562974
2.40066
2.432894
2.217729
2.907004
2.329744
2.029964
2.159708
2.811106
2.049304
2.216923
2.063004
2.104103
2.919897
2.888469
2.036411
2.103297
2.902974
2.097656
2.821582
2.138755
2.108938
2.140367
2.287839
2.864293
2.937626
2.961802
2.4474
2.160513
2.346667
2.204836
2.448205
2.44337
2.175825
2.287033
2.183883
3.559751
3.525099
3.537187
2.26044
2.294286
2.391795
3.468688
2.201612
2.329744
2.262857
2.256411
3.542827
2.2274
2.397436
2.181466
2.432088
2.302345
2.291063
3.722535
3.733011
3.3
3.923194
2.104103
2.807883
2.790154
2.045275
2.413553
2.360367
3.529934
2.333773
2.329744
3.627443
2.243517
3.612937
2.407107
2.336997
3.50334
3.55411
2.459488
2.442564
2.345861
2.475605
2.495751
2.490916
2.233041
2.169378
2.154872
2.384543
2.455458
3.47997
2.18066
2.156484
2.187912
2.325715
2.44337
2.075898
2.294286
2.113773
3.468688
2.42
2.324909
2.211282
2.075092
2.371649
2.259634
2.317656
2.379707
2.357949
2.395019
2.474799
2.266887
2.474799
2.269304
2.243517
2.49414
2.32652
3.666124
2.129085
2.378901
2.432894
3.521069
2.494946
2.202418
2.244323
2.423224
2.366008
2.321685
2.368425
2.263664
3.604073
2.333773
3.678212
3.52671
2.335385
3.551692
2.490916
3.633084
2.364396
2.299121
2.403883
2.158096
3.488029
3.69997
3.146081
3.3
3.954622
3.500923
2.063004
2.200001
2.219341
2.41033
2.499781
3.613743
3.54041
3.604879
2.481246
2.491722
3.55411
2.381319
3.548468
2.239488
3.731399
3.616967
3.4703
3.567809
2.468352
3.648395
3.623414
3.578286
3.61052
3.59682
3.628249
3.030037
3.742681
3.007473
3.537992
3.60085
3.805538
3.646784
3.899824
2.411136
2.387766
2.397436
2.474799
3.58715
3.565392
2.282198
2.474799
3.513011
2.439341
3.525905
2.256411
3.468688
2.304762
3.641949
2.217729
2.41033
3.471912
3.529934
3.509787
2.365202
3.525905
2.458682
3.778139
3.558945
3.623414
2.491722
3.508176
3.731399
3.549275
3.512205
2.468352
3.467882
3.599238
3.80715
3.472718
3.679824
2.445788
3.749128
3.752351
2.399854
3.77008
2.32088
3.649201
3.480776
3.480776
3.584732
2.322491
2.311209
3.522681
2.482052
2.353114
2.372455
2.146814
3.743487
3.868395
3.3
3.876454
2.32652
2.036411
2.938432
2.32088
2.256411
2.296704
2.30718
3.504952
3.479164
3.567809
2.416777
3.496087
2.462711
2.436118
3.651619
3.80715
3.616967
3.796674
3.875648
3.762828
3.590373
3.591179
2.387766
3.537187
3.487223
2.251576
2.325715
2.963414
2.407107
2.247546
2.277363
2.217729
2.001759
2.20403
2.216923
2.27011
2.268499
2.122638
2.063004
2.23707
2.017876
2.378901
2.89008
2.146008
2.147619
2.058975
2.385349
2.948908
2.198389
2.125861
2.123444
2.256411
3.584732
2.385349
3.475135
3.488835
3.72737
3.833743
3.617773
2.428059
2.490916
2.497363
3.604073
3.523487
2.469964
3.489641
2.230623
3.548468
2.378096
2.053334
2.954549
2.032381
3.490447
3.548468
3.467882
3.832132
2.415971
3.674989
3.55411
3.712864
3.761216
3.478359
3.500923
3.738652
3.702388
3.846637
3.668542
3.662901
3.035678
3.030843
3.3
3.757187
3.17751
3.21055
3.03729
3.141246
3.780557
3.779751
3.682242
3.720923
3.757992
3.69997
2.385349
2.432088
2.239488
2.429671
2.239488
2.952132
2.15326
2.914256
2.255605
2.937626
2.061392
2.957773
2.088792
2.174213
2.013847
2.071869
2.113773
2.440953
2.46674
2.465934
2.302345
2.308792
2.942461
2.788542
2.885245
2.142784
2.243517
2.952937
2.070257
2.30718
2.20403
3.542827
2.182271
3.4703
3.648395
3.73704
3.858725
3.475135
3.63389
3.612937
3.724146
3.761216
3.658872
3.636307
3.64356
3.528322
3.629055
3.545245
2.469964
3.6903
2.393407
3.63389
2.47077
3.683853
3.038096
3.3
3.3
2.461905
2.836088
2.719238
2.075092
2.243517
2.301539
2.206447
2.220953
2.131502
3.473524
2.336997
2.268499
2.208059
2.061392
2.44337
2.345861
3.550886
2.18066
2.32652
3.535575
3.520263
2.294286
2.939238
2.452235
2.372455
2.423224
2.307986
2.144396
2.286227
2.390989
2.287839
3.500923
2.24674
2.29348
2.397436
2.223371
3.63389
2.266887
3.473524
2.34022
2.40066
2.48044
2.402272
2.436118
2.456264
3.549275
3.528322
2.428059
2.253993
3.467882
2.356338
3.488029
2.442564
2.394213
3.481582
2.301539
3.529934
2.233846
2.336191
2.168572
2.4337
2.461905
2.348279
2.324103
2.193553
2.370843
2.370037
2.436118
2.322491
2.327326
2.187107
2.465129
2.228206
2.265275
2.276557
2.156484
2.280586
2.165348
2.269304
2.475605
2.058975
3.487223
2.32088
2.497363
3.698359
3.649201
3.3
3.19685
2.327326
2.806271
2.739384
2.853817
2.197583
2.163737
2.45707
2.210477
2.222564
2.388572
2.277363
3.513817
2.291063
3.474329
2.380513
2.490916
3.51704
3.592791
3.546051
2.464323
3.706417
3.636307
3.562974
2.450623
3.661289
3.728981
3.097729
3.823267
3.743487
3.640337
3.625025
3.832132
3.529934
3.593597
2.245934
2.324909
2.391795
2.324103
2.259634
2.113773
2.126667
2.285422
2.264469
2.196777
2.844146
2.856234
2.198389
2.33055
2.268499
2.379707
2.20403
2.407107
2.487693
2.305568
3.501729
2.121832
2.396631
2.223371
2.278169
2.852205
1.313554
1.264396
1.444909
2.888469
2.126667
2.258828
2.310403
3.54041
2.495751
3.649201
2.453041
2.417583
2.356338
2.345861
3.562974
2.306374
3.478359
2.387766
3.62422
3.702388
3.770886
3.687077
3.744293
3.774109
3.770886
3.832132
3.751546
3.762022
3.519457
3.917553
3.787003
3.051795
3.795062
3.755575
3.075165
3.720117
3.932864
3.948981
3.3
3.572644
3.890959
3.957846
3.790227
3.957846
3.035678
3.203297
3.098535
3.822461
3.816014
3.050989
3.880483
3.067913
3.732205
3.851472
3.822461
3.829714
3.120293
3.575062
3.798285
3.650007
3.925611
3.802315
3.66693
3.568615
3.47997
3.546857
2.460293
2.428865
2.320074
2.442564
2.358755
3.672571
2.384543
3.499311
2.249964
2.261246
3.487223
2.249158
2.474799
2.216923
2.471576
3.467882
2.333773
2.334579
2.173407
2.158902
2.32652
2.332968
2.266081
2.282198
2.91748
2.384543
2.197583
2.396631
2.049304
2.873157
3.4703
2.49414
2.445788
3.616967
2.242711
2.489305
3.496087
3.781362
3.525099
2.453041
2.472381
3.487223
3.609714
3.538798
2.427253
2.315238
3.529128
2.482857
3.64356
2.311209
2.406301
2.407912
2.384543
3.487223
2.299121
3.537187
3.567003
3.238755
3.3
3.787003
2.951326
2.872351
2.079121
2.290257
2.365202
2.469964
2.304762
2.263664
3.619384
2.41033
3.674183
2.461905
3.561362
3.687077
3.468688
3.778139
2.353114
2.173407
2.198389
3.556527
2.353114
2.416777
2.327326
2.154872
2.212088
2.097656
2.150843
2.352308
2.403883
2.320074
2.291869
2.453041
2.356338
2.345055
2.249964
2.292675
2.291063
3.483194
2.408719
3.558139
2.32088
3.475135
3.536381
2.287033
3.490447
2.210477
3.506564
2.47077
2.486081
2.458682
2.320074
2.368425
3.471912
3.481582
3.635502
3.519457
2.46674
3.68063
2.294286
3.524293
2.184689
2.100879
2.376484
2.144396
2.256411
2.017876
2.075898
2.147619
2.191136
2.175019
2.324103
2.124249
2.357143
2.469158
3.796674
3.3
3.759604
2.436924
2.742608
2.113773
2.295092
2.498975
3.50334
3.841802
3.906271
3.687077
3.887736
3.677406
3.069524
3.78378
3.848249
3.83052
3.801509
3.906271
3.829714
3.711253
3.650007
3.619384
3.558139
3.799897
2.479634
3.638725
2.172601
2.375678
2.430477
2.282198
2.453041
2.931179
2.221759
2.254799
2.279781
2.27011
2.175825
2.04044
2.275751
2.217729
2.41033
2.320074
2.162125
3.520263
2.284616
3.584732
2.444982
2.345861
3.504146
2.469158
2.457876
2.372455
2.357949
2.356338
2.42403
2.408719
2.415165
2.112162
2.458682
2.352308
2.307986
2.459488
3.537187
2.41033
3.496894
2.395019
3.468688
2.387766
3.553304
2.327326
2.427253
2.429671
2.329744
2.358755
2.031575
3.477553
2.411136
2.430477
2.389378
3.487223
3.005055
3.3
3.745098
2.165348
2.855428
2.840923
2.476411
2.345055
3.679824
2.315238
2.450623
3.527516
2.289451
2.414359
2.169378
2.249964
2.285422
2.313627
2.30718
2.323297
2.094433
2.357143
2.197583
2.41033
2.347473
2.252381
2.468352
2.310403
3.757992
2.48044
2.482052
3.520263
3.510593
3.576674
2.469964
2.100879
2.068645
2.02674
2.360367
2.218535
2.416777
2.26044
2.240294
2.393407
2.423224
2.269304
2.285422
2.262857
2.212894
2.453041
2.187107
2.457876
2.188718
2.401466
3.475135
2.395019
2.424836
2.038023
2.282198
2.259634
2.322491
2.313627
2.193553
2.224176
2.347473
2.295092
2.438535
2.374872
2.210477
3.521875
2.27414
2.460293
2.315238
2.345861
2.407107
2.371649
2.471576
2.407107
2.26044
2.304762
2.429671
2.479634
3.525905
2.310403
3.549275
2.449012
3.616161
3.495282
2.453041
3.536381
3.597626
3.293554
3.3
3.694329
2.952937
2.150843
2.234652
2.497363
3.672571
2.282198
3.578286
2.482052
3.635502
3.538798
2.468352
3.498505
3.63389
3.677406
3.854696
3.623414
3.571838
3.778139
3.528322
3.072747
3.590373
3.803121
3.712864
3.767663
3.04696
3.717699
3.803927
3.738652
3.854696
3.828908
3.705611
2.49011
3.725758
3.513011
3.648395
2.382125
2.137949
2.368425
2.276557
3.582315
2.259634
2.282198
2.217729
2.358755
2.479634
2.33055
2.309598
2.135532
2.332968
2.419194
2.465934
2.269304
2.216923
2.401466
3.496087
3.629861
3.474329
3.641949
2.411136
3.4703
3.725758
3.591179
3.849055
2.426447
3.683047
3.532351
3.667736
3.720117
2.272528
3.650813
3.468688
3.513011
3.525905
2.474799
3.645172
3.881289
3.75074
3.796674
3.521875
3.698359
3.799897
3.508176
3.645978
2.307986
2.425642
3.533157
3.494476
3.505758
2.36359
2.294286
2.473993
3.529934
3.513817
2.362784
2.208865
3.747516
3.923194
3.3
3.719311
2.156484
2.010623
2.806271
2.357143
2.284616
2.485275
2.205642
2.370037
2.483663
2.23707
3.650813
3.590373
2.288645
3.558139
2.399048
3.722535
3.59682
3.50334
3.518652
3.622608
3.626637
3.69997
2.403883
2.421612
2.439341
2.256411
3.633084
2.204836
3.516234
2.408719
3.528322
3.594403
2.398242
3.521875
2.395824
2.455458
3.487223
2.365202
2.274946
3.502534
2.391795
3.488029
2.236264
2.30718
2.462711
2.34022
3.59682
2.301539
2.440147
2.372455
3.474329
3.513011
3.516234
2.465129
2.434506
3.558945
3.546051
3.571838
2.345861
2.458682
2.465129
3.742681
3.47997
2.020293
2.15326
2.465934
2.32088
2.245129
2.740996
2.196777
2.077509
2.238682
2.371649
2.262857
2.47077
2.112162
2.358755
2.268499
3.49367
3.541216
2.47077
2.359561
2.360367
3.506564
3.531546
3.484806
2.278169
2.468352
2.407107
3.695941
2.478828
3.545245
3.525905
3.580703
3.908688
3.604073
3.678212
2.349085
3.480776
3.574256
3.504146
2.465934
2.216923
2.244323
2.332162
2.434506
2.368425
2.256411
2.082345
2.478828
2.229817
3.490447
2.324909
2.178242
3.50334
2.208059
2.37326
2.207253
2.350696
2.881216
2.945685
2.333773
2.409524
2.206447
2.218535
2.239488
2.371649
2.220953
2.108132
2.067839
2.378096
2.220953
2.403883
2.122638
2.286227
2.427253
2.346667
2.461099
2.278975
2.376484
2.104909
2.322491
2.300733
2.419194
2.299927
2.217729
2.408719
2.456264
2.337803
2.320074
2.473993
2.29751
3.809567
3.017143
3.3
3.116264
2.359561
2.240294
2.924732
2.221759
2.097656
3.477553
3.468688
2.458682
3.552498
2.414359
2.375678
3.708835
2.475605
2.448205
3.575062
2.245934
3.741069
2.458682
3.558945
2.304762
2.182271
3.588761
3.529128
3.52671
3.468688
2.123444
3.500117
2.336997
3.468688
2.436924
2.228206
2.278169
2.357143
2.374066
2.299121
2.291063
2.168572
2.175019
2.237876
2.292675
2.084762
2.29348
2.025935
2.171795
2.305568
2.010623
2.15729
2.83367
2.103297
2.068645
2.220147
2.127473
2.948908
2.15729
2.291869
2.09685
2.281392
2.370843
2.271722
3.629055
3.516234
3.718505
2.449012
3.777333
3.948176
3.791033
3.914329
3.685465
3.963487
3.951399
3.19685
3.094506
3.08
3.870813
3.529128
3.654842
3.757992
3.560556
3.565392
3.790227
3.100147
3.3
3.3
3.815209
2.137143
2.210477
2.268499
2.436118
3.560556
2.401466
3.502534
2.366008
2.397436
2.239488
2.371649
2.486081
2.390989
2.30718
2.361173
2.232235
2.237876
3.607296
2.402272
3.520263
2.439341
3.780557
3.648395
3.738652
3.928029
3.478359
3.73704
3.682242
3.803927
3.674989
2.439341
2.368425
3.506564
2.365202
2.414359
2.154872
2.89411
2.181466
2.874769
2.229817
2.860263
2.116997
2.195165
2.151649
2.285422
2.598359
2.746637
2.135532
2.160513
2.461099
2.08718
2.087986
2.058975
2.268499
2.319268
2.243517
2.264469
2.225788
2.182271
2.221759
2.46674
2.127473
2.247546
2.082345
3.485612
2.413553
2.233846
2.253993
2.118608
3.525099
2.414359
2.430477
2.398242
2.301539
2.384543
3.574256
2.457876
2.37729
2.196777
2.278169
3.562168
2.304762
3.560556
2.203224
3.4703
3.519457
3.522681
3.612937
2.200806
2.341026
2.431283
2.440953
2.418389
2.302345
2.172601
2.385349
2.335385
2.482052
2.151649
2.155678
3.472718
2.258022
2.258828
3.496087
2.322491
3.678212
3.533157
3.695941
3.509787
2.475605
2.49414
2.474799
3.825685
3.471912
3.619384
3.513011
3.704806
3.822461
3.849055
3.779751
3.733011
3.590373
3.69997
3.926417
3.76041
3.823267
2.397436
3.840996
3.487223
2.474799
2.429671
2.254799
2.436924
2.259634
2.257216
2.212088
2.142784
2.351502
2.490916
2.333773
3.496894
2.184689
2.382125
3.479164
2.299927
3.525905
2.122638
2.496557
2.432894
2.498975
3.515428
2.409524
2.415165
2.361173
2.399048
2.407107
2.314433
2.436924
3.53074
3.567003
3.514622
3.471912
2.494946
2.469158
3.488029
3.513817
2.37729
2.478828
2.328938
3.78378
3.480776
3.738652
3.482388
3.551692
3.842608
3.529934
3.62019
3.490447
3.565392
3.612131
3.532351
3.519457
2.496557
2.228206
2.452235
3.608102
3.469494
3.639531
2.325715
3.61052
2.423224
3.749934
3.090477
3.139634
3.3
3.716088
2.208059
2.165348
2.217729
2.343444
3.584732
3.538798
3.814402
3.521875
3.468688
3.52671
2.432894
3.825685
2.436924
3.583926
3.593597
3.545245
3.609714
3.728981
3.890154
3.824073
3.711253
3.912718
3.52671
3.528322
2.270916
2.449012
2.487693
3.489641
2.357143
2.371649
2.354726
2.414359
2.105715
2.474799
2.436924
3.674989
2.372455
3.521875
3.468688
2.438535
3.674183
2.239488
3.64759
3.475135
3.649201
2.498975
2.361979
2.401466
3.59682
3.630666
3.571838
3.499311
2.423224
3.61052
2.482052
3.649201
2.368425
2.465934
2.46674
3.641142
3.719311
2.477217
3.472718
2.332162
2.411136
2.385349
2.336997
2.294286
2.321685
2.301539
2.328938
2.253187
2.868322
2.860263
2.401466
3.528322
3.546051
3.494476
2.4337
2.333773
3.578286
3.480776
3.498505
3.542022
2.376484
3.777333
3.542827
3.600044
3.49367
3.485612
3.604073
2.482052
3.535575
3.556527
2.474799
2.413553
3.622608
3.622608
3.658872
2.311209
3.495282
2.397436
2.36359
3.520263
2.162125
2.224176
2.063004
2.23707
2.118608
2.135532
2.025935
2.276557
2.277363
2.211282
2.064616
2.883633
2.12989
2.113773
2.384543
2.146814
2.256411
2.009011
2.165348
2.294286
2.223371
2.312821
2.052528
2.333773
2.216923
3.59682
2.391795
3.471912
3.536381
2.488498
3.546051
2.366814
2.41033
3.499311
3.773304
3.642754
3.513817
2.201612
2.46674
2.446594
2.49011
3.499311
2.042858
2.345861
2.262052
2.388572
2.25077
2.272528
2.371649
2.44337
2.393407
3.612937
3.896601
3.3
3.248425
2.407912
2.152455
2.858652
2.230623
2.27414
2.451429
3.619384
3.508176
3.570227
2.317656
3.538798
3.588761
3.61052
2.42403
3.49367
3.58715
3.745098
3.469494
2.49414
3.580703
3.559751
3.831326
2.418389
2.255605
2.224176
2.270916
3.663707
2.493334
2.436924
2.336997
2.117803
2.471576
2.233041
3.49367
2.333773
2.269304
2.357143
2.348279
2.394213
2.444176
2.282198
2.391795
2.445788
2.423224
2.456264
2.050916
2.361979
2.354726
2.436924
2.465934
2.133114
2.34425
2.306374
2.451429
2.266887
2.381319
2.185495
2.237876
2.264469
2.378096
2.32088
2.169378
2.216118
2.210477
2.439341
2.170183
2.256411
2.058169
2.416777
2.390989
2.302345
2.272528
2.106521
2.366008
2.378901
2.355531
2.31685
2.315238
2.274946
2.121026
2.310403
3.792644
3.040513
3.3
3.88693
2.160513
2.082345
2.175825
2.255605
3.761216
3.549275
3.537992
2.474799
2.300733
3.482388
2.289451
3.662901
3.488835
2.491722
2.416777
3.490447
3.562974
3.740264
3.560556
2.484469
3.472718
3.477553
3.80715
3.510593
3.642754
3.635502
3.882095
3.630666
3.579091
3.58715
3.558139
3.762828
3.537992
2.384543
2.139561
2.284616
2.286227
2.356338
2.091209
2.123444
2.058975
2.114579
2.265275
2.049304
2.329744
2.029158
2.237876
2.191942
2.097656
2.020293
2.264469
3.628249
2.386154
3.575062
2.186301
2.361979
2.484469
2.488498
3.483194
2.393407
2.313627
3.513011
2.412748
2.393407
3.483194
2.336191
3.675795
2.49011
3.737846
3.50737
2.31685
3.500117
2.492528
3.649201
2.475605
2.485275
2.434506
3.538798
3.516234
3.510593
2.311209
2.249964
2.225788
2.217729
2.471576
2.223371
2.383737
2.191942
3.481582
2.328938
2.32088
2.362784
3.49367
3.167839
3.3
3.689494
2.134726
2.81997
2.042858
2.461905
3.473524
3.634696
2.372455
2.449012
2.482857
2.371649
3.638725
3.546051
3.516234
3.855502
3.567003
3.854696
3.751546
3.629861
3.792644
3.637919
3.819238
3.629861
3.52671
2.438535
3.516234
3.522681
2.493334
2.125861
2.368425
2.20403
2.30718
2.445788
2.037216
2.231429
2.091209
2.42403
2.224982
2.268499
2.223371
2.29751
2.436924
2.237876
2.331356
2.294286
2.388572
2.334579
2.428865
2.345861
2.462711
2.285422
2.372455
3.506564
2.351502
2.494946
2.185495
2.469158
2.32652
3.500117
3.490447
2.204836
2.403883
3.49367
3.490447
2.036411
2.453041
3.558945
3.587956
3.515428
2.429671
2.432894
3.574256
3.547663
3.529934
3.481582
2.327326
3.486417
2.355531
3.733011
2.453041
2.308792
2.429671
2.490916
3.790227
3.878871
3.3
3.1074
2.449817
2.17663
2.121026
2.091209
2.357143
3.500923
2.253993
2.428865
3.720923
3.730593
3.874842
3.571838
3.812791
3.878871
3.768468
3.836967
2.444176
3.94737
3.616967
3.569421
3.584732
2.312015
3.480776
3.609714
3.541216
2.463517
2.274946
2.228206
3.604879
2.361173
3.49367
2.2137
2.405495
2.091209
2.405495
2.484469
2.295898
3.472718
2.439341
3.777333
3.500923
2.44337
2.348279
2.389378
3.677406
3.510593
2.4474
2.290257
2.44337
3.467882
3.59682
3.49367
3.515428
2.403883
3.862754
3.667736
3.590373
3.494476
2.285422
3.662095
2.353114
2.464323
2.322491
2.245934
2.396631
2.402272
2.371649
2.334579
2.225788
2.345861
3.545245
3.674989
3.3
3.091282
3.919165
2.259634
2.018682
2.348279
2.111356
2.459488
2.414359
3.514622
3.532351
3.506564
2.492528
3.674989
3.61052
3.608908
2.370037
2.407912
3.504146
3.764439
3.763633
3.76041
3.547663
3.639531
3.609714
3.766857
3.549275
2.42403
2.346667
2.140367
2.436118
2.116191
2.329744
2.039634
2.090404
2.303956
2.229817
2.226594
2.101685
2.182271
2.159708
2.233041
2.145202
2.242711
2.000147
2.329744
2.229012
2.242711
2.352308
2.075092
3.487223
2.285422
2.453847
2.404689
2.149231
2.258828
2.429671
2.370843
2.436118
2.204836
2.275751
2.473993
2.173407
2.464323
2.089597
2.403883
2.371649
3.542022
3.622608
2.34425
2.324103
2.000953
2.414359
2.451429
3.893377
3.3
3.3
3.719311
2.075898
2.919897
2.886051
2.428059
3.481582
2.461099
2.355531
2.436118
2.332968
3.739458
3.52671
3.565392
3.487223
2.417583
3.720117
2.465934
3.62422
2.416777
2.468352
3.590373
3.650813
3.597626
3.50334
2.404689
3.55008
3.786198
3.679824
3.922388
2.407107
3.820044
3.538798
3.552498
3.520263
2.116997
2.334579
2.162125
2.416777
2.339414
2.212088
2.096044
2.226594
2.20403
2.313627
2.029964
2.095239
2.249964
2.05011
2.339414
2.882828
2.002565
2.336997
2.300733
3.622608
2.375678
2.362784
2.300733
2.378096
3.683047
2.425642
3.564586
2.426447
2.469964
3.555721
3.475135
3.535575
2.392601
2.415165
3.583926
3.561362
3.523487
3.544439
2.29348
3.484806
2.316045
2.423224
2.361173
2.135532
3.591985
2.403883
3.602461
2.311209
2.374872
3.795868
3.3
3.3
3.718505
2.965025
2.923121
2.150843
2.328938
3.636307
2.150843
3.631472
2.429671
3.683853
3.521875
2.366814
3.609714
3.542022
3.712864
3.656454
3.648395
2.468352
3.700776
3.687883
3.679824
3.702388
3.53074
2.404689
2.454653
2.399854
2.356338
2.244323
2.255605
2.154066
3.558139
2.262052
2.469964
2.262052
2.239488
3.533157
2.253993
3.484
2.078316
2.18066
2.30718
2.242711
2.224176
2.13392
2.05011
2.253187
2.242711
2.195165
2.320074
2.91748
2.323297
2.109744
2.296704
2.28381
2.161319
2.426447
2.256411
2.455458
2.366814
2.137143
2.230623
2.359561
2.224176
2.378901
2.048499
2.195971
2.33055
2.191136
2.411136
2.095239
2.374872
2.224176
2.336997
2.304762
2.104103
2.04044
2.221759
2.491722
2.265275
2.442564
2.178242
2.395824
2.374872
3.554916
3.854696
3.18718
3.109817
3.485612
2.936014
2.0074
2.15729
2.09685
3.524293
2.439341
3.523487
2.359561
2.233846
3.580703
2.42
3.684659
2.385349
2.348279
3.551692
3.627443
3.545245
3.699164
2.44337
3.546051
3.50737
3.473524
3.774109
2.474799
3.814402
3.531546
3.780557
3.814402
3.650007
3.758798
3.508982
3.599238
2.475605
2.390989
2.279781
2.399048
2.316045
2.445788
2.041246
2.09685
2.091209
2.892498
2.933597
2.185495
2.122638
2.169378
2.179048
2.432894
2.197583
3.480776
2.169378
2.266081
2.465129
2.255605
3.487223
2.236264
2.429671
2.408719
3.512205
3.545245
2.398242
2.412748
3.598432
3.496087
3.513011
3.525905
2.219341
3.649201
2.29348
3.525099
2.475605
2.252381
2.436118
2.295092
3.488835
2.365202
2.356338
3.608908
3.709641
3.74671
3.854696
3.479164
3.632278
3.149304
3.3
3.152528
3.494476
2.108132
2.32088
2.302345
3.629861
3.855502
2.465129
3.640337
2.394213
3.694329
3.681435
3.663707
3.597626
2.397436
3.661289
3.144469
3.903047
3.175898
3.601656
3.664512
3.777333
3.851472
3.758798
3.521875
2.268499
3.519457
2.4337
2.411136
2.456264
2.046887
2.415165
2.262052
2.49414
2.274946
2.223371
2.313627
2.283004
2.358755
2.232235
2.223371
2.146008
2.339414
2.432894
3.560556
2.384543
2.345055
2.280586
3.477553
3.50334
2.294286
2.471576
2.220147
3.50737
3.568615
3.601656
3.513011
2.486887
3.506564
3.635502
3.50334
2.41033
2.490916
2.436118
3.74671
2.471576
3.629055
2.397436
3.619384
2.353114
2.336191
3.487223
2.468352
2.291063
3.602461
2.364396
3.679018
3.553304
3.795062
3.3
3.19685
3.712864
2.114579
2.075898
2.187912
3.562168
3.63389
3.587956
2.285422
2.482052
2.397436
3.479164
3.551692
2.415971
3.650007
2.36359
3.678212
3.504146
3.47997
2.426447
2.399854
3.681435
3.571838
3.480776
2.390989
2.491722
3.513817
3.659677
2.495751
3.777333
3.542022
3.846637
3.819238
3.494476
3.496087
2.165348
3.474329
2.30315
2.31685
2.368425
2.233041
2.380513
2.391795
2.28381
2.857846
2.237876
2.409524
3.59682
3.571838
2.478828
2.300733
3.551692
2.490916
3.558945
3.560556
2.258022
3.631472
2.394213
3.664512
2.342638
2.305568
3.495282
2.449012
3.658066
3.516234
2.4474
3.467882
3.564586
3.513011
3.536381
2.372455
2.408719
2.172601
2.31685
2.449012
2.291063
2.332968
2.2137
3.542022
2.413553
3.482388
2.387766
2.391795
3.781362
3.184762
3.3
3.748322
2.965831
2.027546
2.290257
2.146814
2.423224
2.077509
2.432894
2.381319
2.268499
3.479164
2.128279
2.461905
2.220953
2.325715
3.820044
3.479164
3.700776
3.897406
3.765245
3.919971
3.704806
3.567003
3.571838
3.572644
2.404689
2.37729
2.091209
2.316045
2.160513
2.384543
2.291063
2.068645
2.392601
2.200806
2.488498
2.249964
2.375678
2.195165
2.249964
2.388572
2.397436
2.409524
2.27011
2.345861
2.411942
2.411136
2.200001
2.324103
2.171795
3.479164
2.401466
2.23707
2.290257
2.123444
3.528322
2.34989
2.442564
2.388572
2.198389
2.269304
2.307986
2.320074
2.474799
2.30718
2.492528
3.677406
2.398242
2.019488
2.004176
3.574256
2.434506
3.627443
3.726564
3.036484
3.3
3.086447
3.616161
2.87074
2.068645
2.242711
3.510593
3.67096
3.51704
2.382125
2.34989
2.488498
2.458682
3.474329
2.339414
2.461905
2.299121
3.664512
3.490447
2.455458
2.449817
2.311209
3.599238
2.418389
3.554916
2.474799
3.57748
3.719311
3.655648
3.681435
3.537992
2.492528
3.546051
3.629055
2.420806
3.547663
2.249158
3.542022
2.463517
2.431283
3.512205
2.045275
2.459488
2.33055
2.434506
2.403883
2.214506
2.272528
2.081539
2.158096
